val_loss,val_accuracy,loss,accuracy,lr
0.6660564541816711,0.6600000262260437,0.582103681564331,0.6800000071525574,0.0010000000474974513
0.6874328851699829,0.46000000834465027,0.414205601811409,0.8199999928474426,0.0010000000474974513
0.6930894374847412,0.36000001430511475,0.34482823610305785,0.8399999737739563,0.0010000000474974513
0.7320868372917175,0.36000001430511475,0.3279937610030174,0.8500000238418579,0.0010000000474974513
0.805400550365448,0.36000001430511475,0.26726424917578695,0.8700000047683716,0.0010000000474974513
0.9975063800811768,0.36000001430511475,0.29635976552963256,0.8600000143051147,0.0010000000474974513
1.0748011112213134,0.36000001430511475,0.24593300744891167,0.9200000166893005,0.0010000000474974513
1.2387540340423584,0.36000001430511475,0.26973792910575867,0.8899999856948853,0.0010000000474974513
1.474183487892151,0.36000001430511475,0.1903974436223507,0.9599999785423279,0.0010000000474974513
1.735767900943756,0.36000001430511475,0.17820168435573577,0.9300000071525574,0.0010000000474974513
1.9575396537780763,0.36000001430511475,0.20835319384932519,0.9300000071525574,0.0010000000474974513
1.7554985880851746,0.36000001430511475,0.24069144576787949,0.9200000166893005,0.0010000000474974513
2.310915160179138,0.36000001430511475,0.2201910439878702,0.9200000166893005,0.0010000000474974513
2.676957941055298,0.36000001430511475,0.22859231606125832,0.9100000262260437,0.0010000000474974513
2.5410993337631225,0.36000001430511475,0.22455000281333923,0.9100000262260437,0.0010000000474974513
2.5574711084365847,0.36000001430511475,0.336738196015358,0.8700000047683716,0.0010000000474974513
2.857827663421631,0.36000001430511475,0.18616838604211808,0.949999988079071,0.0010000000474974513
2.950565242767334,0.36000001430511475,0.15550222620368004,0.9399999976158142,0.0010000000474974513
3.137478494644165,0.36000001430511475,0.13020006325095893,0.9599999785423279,0.0010000000474974513
3.4572845458984376,0.36000001430511475,0.12548527754843236,0.949999988079071,0.0010000000474974513
2.398204779624939,0.36000001430511475,0.1286233127117157,0.9700000286102295,0.0010000000474974513
3.2497103452682494,0.36000001430511475,0.1601247861981392,0.9399999976158142,0.0010000000474974513
2.8111810445785523,0.36000001430511475,0.14328859075903894,0.949999988079071,0.0010000000474974513
2.9868658781051636,0.36000001430511475,0.14783367849886417,0.949999988079071,0.0010000000474974513
2.971473550796509,0.36000001430511475,0.12235212177038193,0.9700000286102295,0.0010000000474974513
2.4374688386917116,0.36000001430511475,0.19629375636577606,0.949999988079071,0.0010000000474974513
2.8217453002929687,0.36000001430511475,0.1447893738746643,0.949999988079071,0.0010000000474974513
2.7776519536972044,0.36000001430511475,0.11499635651707649,0.9599999785423279,0.0010000000474974513
2.654641342163086,0.36000001430511475,0.08599594421684742,0.9700000286102295,0.0010000000474974513
2.0451475381851196,0.36000001430511475,0.09254191853106022,0.9800000190734863,0.0010000000474974513
1.8427672147750855,0.36000001430511475,0.08905980102717877,0.9599999785423279,0.0010000000474974513
1.5626787543296814,0.36000001430511475,0.15709914565086364,0.9399999976158142,0.0010000000474974513
0.5173342227935791,0.7599999904632568,0.18877653032541275,0.9300000071525574,0.0010000000474974513
0.40972663164138795,0.800000011920929,0.2246288500726223,0.8899999856948853,0.0010000000474974513
0.3674768090248108,0.800000011920929,0.17879257202148438,0.9300000071525574,0.0010000000474974513
0.504310029745102,0.800000011920929,0.10123252719640732,0.9800000190734863,0.0010000000474974513
0.3669139713048935,0.8600000143051147,0.14705256335437297,0.9399999976158142,0.0010000000474974513
0.4420699715614319,0.7799999713897705,0.09894626904278994,0.9599999785423279,0.0010000000474974513
0.3803772807121277,0.800000011920929,0.10674218088388443,0.9800000190734863,0.0010000000474974513
0.4881238877773285,0.800000011920929,0.0862819162197411,0.9700000286102295,0.0010000000474974513
0.5314439177513123,0.7200000286102295,0.13568568397313358,0.9700000286102295,0.0010000000474974513
0.33157549500465394,0.8399999737739563,0.1358762441202998,0.9599999785423279,0.0010000000474974513
0.9060394763946533,0.5799999833106995,0.08230647780001163,0.9800000190734863,0.0010000000474974513
0.434971284866333,0.800000011920929,0.18393329791724683,0.9200000166893005,0.0010000000474974513
0.6029612362384796,0.7799999713897705,0.1148000955581665,0.9599999785423279,0.0010000000474974513
0.7895053625106812,0.6000000238418579,0.10604490749537945,0.9599999785423279,0.0010000000474974513
0.39918399751186373,0.8799999952316284,0.068446652777493,0.9800000190734863,0.0010000000474974513
0.3376737251877785,0.8600000143051147,0.08949980856850744,0.9700000286102295,0.0010000000474974513
0.3416602790355682,0.8799999952316284,0.1336348071694374,0.949999988079071,0.0010000000474974513
1.2982525825500488,0.6800000071525574,0.1494743214920163,0.949999988079071,0.0010000000474974513
0.7407961547374725,0.7400000095367432,0.13582124607637525,0.949999988079071,0.0010000000474974513
0.2962371692061424,0.8999999761581421,0.08272619284689427,0.9800000190734863,0.0010000000474974513
0.3293567180633545,0.8399999737739563,0.0767492663115263,0.9900000095367432,0.0010000000474974513
0.272321517765522,0.9200000166893005,0.08825609795749187,0.9599999785423279,0.0010000000474974513
0.2990978628396988,0.8600000143051147,0.05936772841960192,0.9800000190734863,0.0010000000474974513
0.2656282514333725,0.8799999952316284,0.08574796710163354,0.9800000190734863,0.0010000000474974513
0.2594494417309761,0.9200000166893005,0.040559407137334344,1.0,0.0010000000474974513
0.7606246650218964,0.7200000286102295,0.07338170856237411,0.9700000286102295,0.0010000000474974513
0.3704963684082031,0.8199999928474426,0.04972685519605875,0.9900000095367432,0.0010000000474974513
0.3008605897426605,0.8799999952316284,0.06829524273052812,0.9700000286102295,0.0010000000474974513
0.5848952293395996,0.8399999737739563,0.08346837740391493,0.9700000286102295,0.0010000000474974513
0.38954058587551116,0.8799999952316284,0.05614033844321966,0.9900000095367432,0.0010000000474974513
0.2663518972694874,0.9399999976158142,0.08035855852067471,0.9700000286102295,0.0010000000474974513
0.39368336722254754,0.8799999952316284,0.06701981974765658,0.9900000095367432,0.0010000000474974513
0.3453812897205353,0.8600000143051147,0.06018250109627843,0.9800000190734863,0.0010000000474974513
0.3131237208843231,0.8799999952316284,0.05666536632925272,0.9800000190734863,0.0010000000474974513
0.3797528237104416,0.8399999737739563,0.04393357401713729,1.0,0.0010000000474974513
0.3596573628485203,0.9200000166893005,0.03738843379542232,0.9900000095367432,0.0010000000474974513
0.3115530163049698,0.8799999952316284,0.0342384122312069,0.9800000190734863,0.0010000000474974513
0.5221204340457917,0.8199999928474426,0.022111660894006492,1.0,0.0010000000474974513
0.707587617635727,0.800000011920929,0.06874020879622549,0.9700000286102295,0.0010000000474974513
0.3105067521333694,0.8600000143051147,0.04451836496591568,0.9900000095367432,0.0010000000474974513
0.29768645763397217,0.8799999952316284,0.07925486713647842,0.9700000286102295,0.0010000000474974513
1.1066058933734895,0.6800000071525574,0.04398632878437638,1.0,0.0010000000474974513
0.37639411762356756,0.8799999952316284,0.0442072594538331,1.0,0.0010000000474974513
0.5669384457170963,0.8799999952316284,0.041938511189073324,0.9900000095367432,0.0010000000474974513
0.6641001045703888,0.800000011920929,0.07293314619455486,0.9599999785423279,0.0010000000474974513
1.534895408153534,0.6800000071525574,0.08666003681719303,0.9700000286102295,0.0010000000474974513
0.4583313040435314,0.8999999761581421,0.07884245701134204,0.9700000286102295,0.0010000000474974513
0.3568383127450943,0.8600000143051147,0.052124887239187956,0.9900000095367432,0.0010000000474974513
0.3347948580980301,0.8999999761581421,0.03103884859010577,1.0,0.0010000000474974513
0.5016713187098503,0.8799999952316284,0.04352927030995488,0.9900000095367432,0.0010000000474974513
0.5722663894295692,0.8600000143051147,0.024200405878946184,1.0,0.0010000000474974513
0.5465773403644562,0.8199999928474426,0.018629968515597284,1.0,0.0010000000474974513
0.3325061500072479,0.8999999761581421,0.01938130911439657,1.0,0.0010000000474974513
0.7470873892307281,0.8399999737739563,0.014709670457523315,1.0,0.0010000000474974513
0.32986907511949537,0.8799999952316284,0.05222006812691689,0.9800000190734863,0.0010000000474974513
0.7442470669746399,0.7799999713897705,0.056377173075452446,0.9900000095367432,0.0010000000474974513
1.2617650985717774,0.699999988079071,0.08992965924553573,0.9700000286102295,0.0010000000474974513
0.26855035722255705,0.8999999761581421,0.12543120384216308,0.9599999785423279,0.0010000000474974513
0.6205250650644303,0.8600000143051147,0.09254863820970058,0.9700000286102295,0.0010000000474974513
0.8647629976272583,0.699999988079071,0.12414815714582801,0.949999988079071,0.0010000000474974513
1.3969687819480896,0.7200000286102295,0.10869552968069911,0.9599999785423279,0.0010000000474974513
0.68245370388031,0.8600000143051147,0.12662268783897163,0.949999988079071,0.0010000000474974513
0.613357013463974,0.800000011920929,0.08992023691534996,0.949999988079071,0.0010000000474974513
0.6759424671530724,0.8600000143051147,0.07839600555598736,0.9800000190734863,0.0010000000474974513
2.5104694604873656,0.41999998688697815,0.04725965037941933,0.9800000190734863,0.0010000000474974513
0.8356687664985657,0.7599999904632568,0.04520351756364107,0.9900000095367432,0.0010000000474974513
0.5003126204013825,0.8600000143051147,0.02195963282138109,1.0,0.0010000000474974513
0.4723624985665083,0.8799999952316284,0.019246630277484654,1.0,0.0010000000474974513
0.35391006618738174,0.8600000143051147,0.016249929391779005,1.0,0.0010000000474974513
0.5000949457287789,0.8999999761581421,0.014911380875855685,1.0,0.0010000000474974513
0.5413775157183409,0.8799999952316284,0.009125843970105052,1.0,0.0010000000474974513
0.3808091297745705,0.8799999952316284,0.005747969611547887,1.0,0.0010000000474974513
0.3228596419095993,0.8799999952316284,0.007868861651513726,1.0,0.0010000000474974513
0.3385524958372116,0.8799999952316284,0.006622115458594635,1.0,0.0010000000474974513
0.3373339205980301,0.8999999761581421,0.028473865590058267,0.9900000095367432,0.0010000000474974513
0.3701260820031166,0.8999999761581421,0.022247299458831547,1.0,0.0010000000474974513
0.42662170678377154,0.8799999952316284,0.06630187947303057,0.9700000286102295,0.0010000000474974513
1.22189159989357,0.7200000286102295,0.04114980138838291,0.9800000190734863,0.0010000000474974513
0.3907859534025192,0.8399999737739563,0.02985067667905241,1.0,0.0010000000474974513
0.43156503066420554,0.8600000143051147,0.01913311411626637,1.0,0.0010000000474974513
0.33656940162181853,0.8999999761581421,0.02169397412799299,1.0,0.0010000000474974513
0.32556010186672213,0.8799999952316284,0.008971193106845021,1.0,0.0010000000474974513
0.34862032532691956,0.8799999952316284,0.011349570972379297,1.0,0.0010000000474974513
0.3410413652658463,0.8799999952316284,0.008778616832569242,1.0,0.0010000000474974513
0.3069606900215149,0.8799999952316284,0.007410477986559272,1.0,0.0010000000474974513
0.38722024857997894,0.8799999952316284,0.011028813500888645,1.0,0.0010000000474974513
0.3835013538599014,0.8799999952316284,0.006406879564747214,1.0,0.0010000000474974513
0.39617423713207245,0.8600000143051147,0.011777113215066493,1.0,0.0010000000474974513
0.5702413246035576,0.8600000143051147,0.007732526853214949,1.0,0.0010000000474974513
1.4441540956497192,0.7200000286102295,0.03452002793783322,1.0,0.0010000000474974513
0.4325438216328621,0.8799999952316284,0.014702182472683489,1.0,0.0010000000474974513
0.42283843010663985,0.8799999952316284,0.013730693800607697,1.0,0.0010000000474974513
0.3279700890183449,0.8600000143051147,0.018412350141443313,1.0,0.0010000000474974513
0.44663165509700775,0.8600000143051147,0.02046384827699512,0.9900000095367432,0.0010000000474974513
0.6027206897735595,0.800000011920929,0.03314597333082929,0.9900000095367432,0.0010000000474974513
0.38113958239555357,0.8799999952316284,0.04055794841842726,0.9900000095367432,0.0010000000474974513
0.39417432248592377,0.8600000143051147,0.17903108207974583,0.9399999976158142,0.0010000000474974513
6.76779727935791,0.6399999856948853,0.25981982219964267,0.9300000071525574,0.0010000000474974513
0.5009119361639023,0.8399999737739563,0.2499292254447937,0.8999999761581421,0.0010000000474974513
1.012467896938324,0.7400000095367432,0.18674979582428933,0.9300000071525574,0.0010000000474974513
0.6032376170158387,0.7799999713897705,0.1370909921824932,0.9599999785423279,0.0010000000474974513
0.3080069825053215,0.8999999761581421,0.08006320307031274,0.9700000286102295,0.0010000000474974513
0.9814964592456817,0.7599999904632568,0.03702255338430405,1.0,0.0010000000474974513
1.1221646130084992,0.7400000095367432,0.037374944891780615,1.0,0.0010000000474974513
0.3071882531046867,0.8799999952316284,0.05989379435777664,0.9800000190734863,0.0010000000474974513
0.43923973441123965,0.8199999928474426,0.028225777810439466,1.0,0.0010000000474974513
0.32022600769996645,0.8799999952316284,0.022546472726389766,1.0,0.0010000000474974513
0.3953871801495552,0.8799999952316284,0.09371917706448585,0.949999988079071,0.0010000000474974513
0.2870902642607689,0.8999999761581421,0.03213199311867356,1.0,0.0010000000474974513
0.7941823601722717,0.7799999713897705,0.028034461941570044,1.0,0.0010000000474974513
0.3303681701421738,0.8999999761581421,0.02590706527698785,1.0,0.0010000000474974513
0.4041246801614761,0.8799999952316284,0.0353957443498075,0.9900000095367432,0.0010000000474974513
0.327375715970993,0.8999999761581421,0.02759899862576276,0.9900000095367432,0.0010000000474974513
0.3140519678592682,0.8799999952316284,0.024306806549429894,1.0,0.0010000000474974513
0.8410773336887359,0.8399999737739563,0.005091701983474195,1.0,0.0010000000474974513
0.30006215870380404,0.8799999952316284,0.03020052807405591,1.0,0.0010000000474974513
0.41143844053149226,0.8999999761581421,0.025236103602219374,1.0,0.0010000000474974513
0.38447192013263704,0.8600000143051147,0.039726693136617544,0.9800000190734863,0.0010000000474974513
1.8298595428466797,0.4399999976158142,0.058019792195409536,0.9800000190734863,0.0010000000474974513
0.3979673061519861,0.8799999952316284,0.07070980984717608,0.9700000286102295,0.0010000000474974513
0.4047244057059288,0.8999999761581421,0.07798516293987631,0.9800000190734863,0.0010000000474974513
5.463531923294068,0.36000001430511475,0.07266113855876029,0.9700000286102295,0.0010000000474974513
0.8772076517343521,0.7799999713897705,0.07688835319131612,0.9800000190734863,0.0010000000474974513
0.33844064474105834,0.8600000143051147,0.07311095912009477,0.9800000190734863,0.0010000000474974513
0.3238243222236633,0.8600000143051147,0.032894055172801015,0.9900000095367432,0.0010000000474974513
0.4586281180381775,0.8600000143051147,0.06341218431480229,0.9800000190734863,0.0010000000474974513
0.375910747051239,0.8799999952316284,0.03363961514551193,0.9900000095367432,0.0010000000474974513
0.4560726974159479,0.8999999761581421,0.018509713723324238,1.0,0.0010000000474974513
0.5952915027737617,0.8600000143051147,0.03198343485128134,1.0,0.0010000000474974513
0.32437279224395754,0.9200000166893005,0.018721161247231066,1.0,0.0010000000474974513
0.5338448464870453,0.8399999737739563,0.007139190612360835,1.0,0.0010000000474974513
0.345628497004509,0.8999999761581421,0.012057660880964249,1.0,0.0010000000474974513
0.44813427329063416,0.8399999737739563,0.02118472699075937,1.0,0.0010000000474974513
0.4573374018073082,0.8399999737739563,0.003772900835610926,1.0,0.0010000000474974513
0.4447313964366913,0.8799999952316284,0.006396317551843822,1.0,0.0010000000474974513
0.49154680520296096,0.8799999952316284,0.009071174153359608,1.0,0.0010000000474974513
1.2799888968467712,0.6600000262260437,0.018299677420873194,1.0,0.0010000000474974513
0.42157487720251086,0.8399999737739563,0.011113967932760715,1.0,0.0010000000474974513
0.3801667675375938,0.9200000166893005,0.004162542626727372,1.0,0.0010000000474974513
0.3717366486787796,0.8799999952316284,0.008378975035157055,1.0,0.0010000000474974513
0.38115004599094393,0.8600000143051147,0.01200867787702009,1.0,0.0010000000474974513
0.3690961509943008,0.8600000143051147,0.003343033537385054,1.0,0.0010000000474974513
0.4850722312927246,0.8600000143051147,0.00479842878994532,1.0,0.0010000000474974513
0.4832544893026352,0.8600000143051147,0.0036681116209365426,1.0,0.0010000000474974513
0.4827689200639725,0.8600000143051147,0.0039508667425252495,1.0,0.0010000000474974513
0.4425967276096344,0.8399999737739563,0.0016668110591126605,1.0,0.0010000000474974513
0.41730782091617585,0.8999999761581421,0.013444926595548167,1.0,0.0010000000474974513
0.4090421758592129,0.9200000166893005,0.0024791621661279352,1.0,0.0010000000474974513
0.3922780714929104,0.9200000166893005,0.004364331861143001,1.0,0.0010000000474974513
0.4108459785580635,0.8799999952316284,0.00222441041842103,1.0,0.0010000000474974513
0.45031825453042984,0.8799999952316284,0.004207923111971467,1.0,0.0010000000474974513
0.38188162744045256,0.8799999952316284,0.0050262518896488475,1.0,0.0010000000474974513
0.3973499327898026,0.8600000143051147,0.0012469251174479722,1.0,0.0010000000474974513
0.4001965641975403,0.8600000143051147,0.002946667149080895,1.0,0.0010000000474974513
0.4196715891361237,0.8799999952316284,0.0035367462784051894,1.0,0.0010000000474974513
0.4285194635391235,0.8799999952316284,0.004479097976582125,1.0,0.0010000000474974513
0.3881923943758011,0.8799999952316284,0.004376655968371779,1.0,0.0010000000474974513
0.4076661437749863,0.8999999761581421,0.0020382318762131035,1.0,0.0010000000474974513
0.40639014840126036,0.8999999761581421,0.0021820077439770103,1.0,0.0010000000474974513
0.3995963245630264,0.8799999952316284,0.0018616120738442986,1.0,0.0010000000474974513
0.4039429396390915,0.8799999952316284,0.001506691484246403,1.0,0.0010000000474974513
0.40912834405899046,0.8799999952316284,0.0022757052211090922,1.0,0.0010000000474974513
0.401132932305336,0.8799999952316284,0.0014846216363366693,1.0,0.0010000000474974513
0.4511929303407669,0.8799999952316284,0.00835621347068809,1.0,0.0010000000474974513
0.5127951055765152,0.8799999952316284,0.001995356779661961,1.0,0.0010000000474974513
0.5414382688701153,0.8799999952316284,0.004193477075023111,1.0,0.0010000000474974513
0.5791252806782723,0.8600000143051147,0.0036559965461492538,1.0,0.0010000000474974513
0.49881870448589327,0.8600000143051147,0.002001717162784189,1.0,0.0010000000474974513
0.4801954016089439,0.8799999952316284,0.0009627634251955896,1.0,0.0010000000474974513
0.4782670810818672,0.8799999952316284,0.0011097187045379542,1.0,0.0010000000474974513
0.4345653593540192,0.8799999952316284,0.0013954857276985422,1.0,0.0010000000474974513
0.41441553384065627,0.8999999761581421,0.0020724559188238347,1.0,0.0010000000474974513
0.42108633667230605,0.8999999761581421,0.000902061395754572,1.0,0.0010000000474974513
0.42897910326719285,0.8799999952316284,0.0010936171631328762,1.0,0.0010000000474974513
0.4444492280483246,0.8799999952316284,0.0009514633260550909,1.0,0.0010000000474974513
0.4476468741893768,0.8799999952316284,0.0008933391261962242,1.0,0.0010000000474974513
0.44999189376831056,0.8799999952316284,0.0005295220762491226,1.0,0.0010000000474974513
0.44456289410591127,0.8799999952316284,0.0014262883356423116,1.0,0.0010000000474974513
0.4393485814332962,0.8799999952316284,0.0008226263686083257,1.0,0.0010000000474974513
0.4264579012989998,0.8799999952316284,0.0016204875835683196,1.0,0.0010000000474974513
0.41759341657161714,0.8799999952316284,0.0014180777594447135,1.0,0.0010000000474974513
0.42026467993855476,0.8999999761581421,0.001940498990006745,1.0,0.0010000000474974513
0.42513154335319997,0.8799999952316284,0.0007239444363221992,1.0,0.0010000000474974513
0.4316880196332932,0.8999999761581421,0.0031325873133027926,1.0,0.0010000000474974513
0.4306310713291168,0.8799999952316284,0.002534373229718767,1.0,0.0010000000474974513
0.3830972135066986,0.8799999952316284,0.0014041134534636512,1.0,0.0010000000474974513
0.39737187772989274,0.8799999952316284,0.0022150167118525133,1.0,0.0010000000474974513
0.40023194029927256,0.8999999761581421,0.005819170878385194,1.0,0.0010000000474974513
0.5669870018959046,0.8799999952316284,0.006443557410966605,1.0,0.0010000000474974513
2.2177306175231934,0.699999988079071,0.003985793791071046,1.0,0.0010000000474974513
0.5387462794780731,0.8600000143051147,0.004455037269508466,1.0,0.0010000000474974513
0.4780340477824211,0.8799999952316284,0.002231796586420387,1.0,0.0010000000474974513
0.4629643402993679,0.8799999952316284,0.007412474762531929,1.0,0.0010000000474974513
0.8441058844327927,0.8600000143051147,0.023265399475349113,1.0,0.0010000000474974513
6.810520076751709,0.6399999856948853,0.08826454957597889,0.9599999785423279,0.0010000000474974513
2.050704574584961,0.7599999904632568,0.07386011183261872,0.9599999785423279,0.0010000000474974513
0.9161027150694281,0.8799999952316284,0.03971683145500719,0.9900000095367432,0.0010000000474974513
6.473835372924805,0.36000001430511475,0.1671390480361879,0.9300000071525574,0.0010000000474974513
5.81402268409729,0.36000001430511475,0.04789213429903612,0.9900000095367432,0.0010000000474974513
1.4168748140335083,0.6800000071525574,0.030569083988666534,1.0,0.0010000000474974513
0.899694076180458,0.8600000143051147,0.018744187289848925,1.0,0.0010000000474974513
1.0774536669254302,0.6800000071525574,0.01671930889133364,1.0,0.0010000000474974513
0.44213137626647947,0.8399999737739563,0.02423476583790034,1.0,0.0010000000474974513
0.5436107769608498,0.8600000143051147,0.012824026786256581,1.0,0.0010000000474974513
0.5480673242360353,0.8799999952316284,0.009566096228081734,1.0,0.0010000000474974513
0.6203409440815448,0.8600000143051147,0.0038435299007687717,1.0,0.0010000000474974513
1.9538590550422668,0.6800000071525574,0.018250437336973846,1.0,0.0010000000474974513
4.286468982696533,0.6600000262260437,0.05819464559899643,0.9700000286102295,0.0010000000474974513
3.872531795501709,0.5,0.27211229004897175,0.8999999761581421,0.0010000000474974513
1.806240725517273,0.6000000238418579,0.12114085238426923,0.949999988079071,0.0010000000474974513
1.082747009396553,0.8199999928474426,0.13759738793596626,0.9399999976158142,0.0010000000474974513
0.4298012137413025,0.8799999952316284,0.13034653048962355,0.9399999976158142,0.0010000000474974513
0.3546356618404388,0.8600000143051147,0.11366800218820572,0.9700000286102295,0.0010000000474974513
0.3665107138454914,0.8799999952316284,0.06082501597702503,0.9700000286102295,0.0010000000474974513
0.4714446425437927,0.8799999952316284,0.07705589970573783,0.9599999785423279,0.0010000000474974513
0.7872741907835007,0.7799999713897705,0.03734206696972251,1.0,0.0010000000474974513
0.29840103536844254,0.8799999952316284,0.03521237913519144,0.9900000095367432,0.0010000000474974513
0.33080239593982697,0.8600000143051147,0.018779252748936416,1.0,0.0010000000474974513
0.46076484620571134,0.8600000143051147,0.017148737143725157,1.0,0.0010000000474974513
0.28867498189210894,0.8399999737739563,0.03548302868148312,0.9900000095367432,0.0010000000474974513
0.37496958374977113,0.8600000143051147,0.030390375875867903,1.0,0.0010000000474974513
0.3716192483901978,0.8399999737739563,0.029446537350304426,0.9800000190734863,0.0010000000474974513
0.38275110721588135,0.8399999737739563,0.019298914237879217,0.9900000095367432,0.0010000000474974513
0.3545359194278717,0.8600000143051147,0.018567887227982284,0.9900000095367432,0.0010000000474974513
0.3748479723930359,0.8799999952316284,0.008343093388248235,1.0,0.0010000000474974513
0.3564127177000046,0.8399999737739563,0.009764526435174049,1.0,0.0010000000474974513
0.40077795684337614,0.8600000143051147,0.004079134960193187,1.0,0.0010000000474974513
0.36310545206069944,0.8399999737739563,0.010479562694672494,1.0,0.0005000000237487257
0.3681885629892349,0.8600000143051147,0.004362008604221046,1.0,0.0005000000237487257
0.3934390157461166,0.8600000143051147,0.004782618058379739,1.0,0.0005000000237487257
0.4087357997894287,0.8600000143051147,0.0032113233872223647,1.0,0.0005000000237487257
0.3331481695175171,0.8600000143051147,0.028455754986498504,0.9900000095367432,0.0005000000237487257
0.3586692072451115,0.8799999952316284,0.027335399482399225,1.0,0.0005000000237487257
0.5561636686325073,0.8399999737739563,0.013899097044486552,1.0,0.0005000000237487257
0.5225349962711334,0.8799999952316284,0.023971725953742862,1.0,0.0005000000237487257
0.4545922875404358,0.8799999952316284,0.003644957073265687,1.0,0.0005000000237487257
0.43861850500106814,0.8799999952316284,0.00782596402859781,1.0,0.0005000000237487257
0.4304636359214783,0.8799999952316284,0.003313214104855433,1.0,0.0005000000237487257
0.4302676558494568,0.8799999952316284,0.0037781363469548525,1.0,0.0005000000237487257
0.4251889228820801,0.8799999952316284,0.0029751378227956594,1.0,0.0005000000237487257
0.42393362522125244,0.8799999952316284,0.008000302349682898,1.0,0.0005000000237487257
0.42323331236839296,0.8600000143051147,0.004669717562501318,1.0,0.0005000000237487257
0.41950012743473053,0.8799999952316284,0.0028918579453602435,1.0,0.0005000000237487257
0.4203774183988571,0.8799999952316284,0.0030170617072144525,1.0,0.0005000000237487257
0.42286634892225267,0.8799999952316284,0.0016857450013048948,1.0,0.0005000000237487257
0.5230424463748932,0.8600000143051147,0.02524653963628225,0.9900000095367432,0.0005000000237487257
1.3014353036880493,0.7599999904632568,0.008779327283264138,1.0,0.0005000000237487257
0.7282158762216568,0.800000011920929,0.010373103467281907,1.0,0.0005000000237487257
0.3821347143501043,0.8999999761581421,0.015451094099262264,0.9900000095367432,0.0005000000237487257
0.40893903076648713,0.8799999952316284,0.004587418347364291,1.0,0.0005000000237487257
0.43687337934970855,0.8799999952316284,0.006335797219071538,1.0,0.0005000000237487257
0.43180960714817046,0.8799999952316284,0.005103643995244056,1.0,0.0005000000237487257
0.4206368297338486,0.8799999952316284,0.003420851474220399,1.0,0.0005000000237487257
0.4202747255563736,0.8799999952316284,0.001603141543455422,1.0,0.0005000000237487257
0.42199420034885404,0.8799999952316284,0.0020548820408293977,1.0,0.0005000000237487257
0.4196645259857178,0.8799999952316284,0.007097893401805777,1.0,0.0005000000237487257
0.4116168737411499,0.8799999952316284,0.0016566456979489885,1.0,0.0005000000237487257
0.4081702306866646,0.8999999761581421,0.0018396315183053958,1.0,0.0005000000237487257
0.4107294760644436,0.8799999952316284,0.002009211538825184,1.0,0.0005000000237487257
0.41455930918455125,0.8999999761581421,0.003170978509297129,1.0,0.0005000000237487257
0.4208289340138435,0.8999999761581421,0.0016778891702415421,1.0,0.0005000000237487257
0.4317705612629652,0.8999999761581421,0.0020862608245806767,1.0,0.0005000000237487257
0.4404079556465149,0.8999999761581421,0.0018318827234907076,1.0,0.0005000000237487257
0.4468106523156166,0.8999999761581421,0.005531982706452254,1.0,0.0005000000237487257
0.42735404074192046,0.8600000143051147,0.0014033474290044978,1.0,0.0005000000237487257
0.4295667976140976,0.8600000143051147,0.000950359320268035,1.0,0.0005000000237487257
0.4318481519818306,0.8799999952316284,0.0028791675693355502,1.0,0.0005000000237487257
0.4342083789408207,0.8799999952316284,0.0020516191245405933,1.0,0.0005000000237487257
0.43953291326761246,0.8999999761581421,0.001236748998053372,1.0,0.0005000000237487257
0.44727169126272204,0.8799999952316284,0.000999048800440505,1.0,0.0005000000237487257
0.4532437175512314,0.8799999952316284,0.0012699330283794553,1.0,0.0005000000237487257
0.45448602437973024,0.8799999952316284,0.0005783265456557274,1.0,0.0005000000237487257
0.4545935317873955,0.8799999952316284,0.0019216509259422309,1.0,0.0005000000237487257
0.448897485435009,0.8799999952316284,0.003138365739141591,1.0,0.0005000000237487257
0.4505466565489769,0.8600000143051147,0.001346412263228558,1.0,0.0005000000237487257
0.45450615137815475,0.8799999952316284,0.0017417783121345565,1.0,0.0005000000237487257
0.4600482076406479,0.8799999952316284,0.0012740531645249575,1.0,0.0005000000237487257
0.4631264165043831,0.8799999952316284,0.0014877013629302383,1.0,0.0002500000118743628
0.467336168885231,0.8799999952316284,0.0019146236445521936,1.0,0.0002500000118743628
0.46905470788478854,0.8799999952316284,0.001155794836813584,1.0,0.0002500000118743628
0.47219490706920625,0.8799999952316284,0.0017352021211991086,1.0,0.0002500000118743628
0.47554540187120437,0.8799999952316284,0.0005216498044319451,1.0,0.0002500000118743628
0.47726128399372103,0.8799999952316284,0.002211787991109304,1.0,0.0002500000118743628
0.47673735618591306,0.8799999952316284,0.0014720718681928702,1.0,0.0002500000118743628
0.47665822356939314,0.8799999952316284,0.000950263917184202,1.0,0.0002500000118743628
0.478349095582962,0.8799999952316284,0.0013477497428539208,1.0,0.0002500000118743628
0.48355545550584794,0.8799999952316284,0.001182107627391815,1.0,0.0002500000118743628
0.4858331963419914,0.8799999952316284,0.0008874583290889859,1.0,0.0002500000118743628
0.4859250858426094,0.8799999952316284,0.0013533574165194295,1.0,0.0002500000118743628
0.48329422175884246,0.8799999952316284,0.0013998390902997925,1.0,0.0002500000118743628
0.4857121169567108,0.8799999952316284,0.0011407352663809433,1.0,0.0002500000118743628
0.4875714987516403,0.8799999952316284,0.0006932125841558445,1.0,0.0002500000118743628
0.48918513357639315,0.8799999952316284,0.0013535551763197873,1.0,0.0002500000118743628
0.49184407889842985,0.8799999952316284,0.0004643117616069503,1.0,0.0002500000118743628
0.49346490800380705,0.8799999952316284,0.0011486300514661706,1.0,0.0002500000118743628
0.49140603840351105,0.8799999952316284,0.0009647912258515135,1.0,0.0002500000118743628
0.48926609456539155,0.8799999952316284,0.0011149371915962548,1.0,0.0002500000118743628
0.48907250761985777,0.8799999952316284,0.0025798932212637736,1.0,0.0002500000118743628
0.48530104756355286,0.8799999952316284,0.0013155013119103387,1.0,0.0002500000118743628
0.48168267905712125,0.8799999952316284,0.0019226984353736044,1.0,0.0002500000118743628
0.4807563334703445,0.8799999952316284,0.0010826412704773246,1.0,0.0002500000118743628
0.4812412768602371,0.8799999952316284,0.0004768073638842907,1.0,0.0002500000118743628
0.4809657871723175,0.8799999952316284,0.004070605666493065,1.0,0.0002500000118743628
0.48390643298625946,0.8799999952316284,0.0007570107845822349,1.0,0.0002500000118743628
0.4820786714553833,0.8799999952316284,0.004056983749615028,1.0,0.0002500000118743628
0.48523746579885485,0.8600000143051147,0.0009819131169933825,1.0,0.0002500000118743628
0.48653195053339005,0.8600000143051147,0.0010532552769291215,1.0,0.0002500000118743628
0.485975506901741,0.8799999952316284,0.005356998194474727,1.0,0.0002500000118743628
0.48024496883153917,0.8600000143051147,0.0008994264935608953,1.0,0.0002500000118743628
0.47964041084051134,0.8600000143051147,0.0011697823982103727,1.0,0.0002500000118743628
0.4822203919291496,0.8600000143051147,0.0013694287757971325,1.0,0.0002500000118743628
0.4866219267249107,0.8799999952316284,0.0008497115224599839,1.0,0.0002500000118743628
0.4928513690829277,0.8799999952316284,0.0010946360489469953,1.0,0.0002500000118743628
0.4976569563150406,0.8799999952316284,0.000965742621337995,1.0,0.0002500000118743628
0.5016473770141602,0.8799999952316284,0.0008527746060281061,1.0,0.0002500000118743628
0.5035352110862732,0.8799999952316284,0.0014026163786184042,1.0,0.0002500000118743628
0.5073597818613053,0.8799999952316284,0.0009661038115154952,1.0,0.0002500000118743628
0.5098673135042191,0.8799999952316284,0.0007123547737137414,1.0,0.0002500000118743628
0.49671112596988676,0.8799999952316284,0.0037171538417169357,1.0,0.0002500000118743628
0.49167426228523253,0.8799999952316284,0.0007274961040820927,1.0,0.0002500000118743628
0.49313023686408997,0.8799999952316284,0.0010961988227791153,1.0,0.0002500000118743628
0.4930636078119278,0.8799999952316284,0.0027919473519432358,1.0,0.0002500000118743628
0.49795869886875155,0.8600000143051147,0.0008899279884644784,1.0,0.0002500000118743628
0.5012205436825752,0.8600000143051147,0.0006352404627250508,1.0,0.0002500000118743628
0.504168125987053,0.8600000143051147,0.0007856014100980247,1.0,0.0002500000118743628
0.5083430200815201,0.8799999952316284,0.0005480014864588156,1.0,0.0002500000118743628
0.5106544733047486,0.8799999952316284,0.001134993189771194,1.0,0.0002500000118743628
0.5138463586568832,0.8799999952316284,0.0010575594249530695,1.0,0.0001250000059371814
0.515255457162857,0.8799999952316284,0.0010952654731227085,1.0,0.0001250000059371814
0.515737971663475,0.8799999952316284,0.0006663907464826479,1.0,0.0001250000059371814
0.5158750146627427,0.8799999952316284,0.0006664306427410338,1.0,0.0001250000059371814
0.5174093931913376,0.8799999952316284,0.0008297503271023742,1.0,0.0001250000059371814
0.517948254942894,0.8799999952316284,0.0008715016767382622,1.0,0.0001250000059371814
0.5179142743349076,0.8799999952316284,0.0004974760144250467,1.0,0.0001250000059371814
0.5187200993299484,0.8799999952316284,0.001003221105929697,1.0,0.0001250000059371814
0.520475196838379,0.8799999952316284,0.00040491094550816343,1.0,0.0001250000059371814
0.5205000042915344,0.8799999952316284,0.0005770589938038029,1.0,0.0001250000059371814
0.5201052099466323,0.8799999952316284,0.0023315203696256505,1.0,0.0001250000059371814
0.5285639941692353,0.8799999952316284,0.00309218387119472,1.0,0.0001250000059371814
0.5267814606428146,0.8799999952316284,0.004454102087765932,1.0,0.0001250000059371814
0.5131132364273071,0.8799999952316284,0.0029521396281779744,1.0,0.0001250000059371814
0.5081247389316559,0.8799999952316284,0.00042770192958414556,1.0,0.0001250000059371814
0.506022709608078,0.8799999952316284,0.0012207887422846398,1.0,0.0001250000059371814
0.5026533335447312,0.8799999952316284,0.0011496793638798408,1.0,0.0001250000059371814
0.5021617412567139,0.8799999952316284,0.0009163407841697336,1.0,0.0001250000059371814
0.5038728237152099,0.8799999952316284,0.0004999434575438499,1.0,0.0001250000059371814
0.5047718256711959,0.8799999952316284,0.0006452968103985768,1.0,0.0001250000059371814
0.5067921847105026,0.8799999952316284,0.0005251764989225194,1.0,0.0001250000059371814
0.5081323057413101,0.8799999952316284,0.0005948384328803513,1.0,0.0001250000059371814
0.5065511792898179,0.8799999952316284,0.0022015424343408085,1.0,0.0001250000059371814
0.5068127155303955,0.8799999952316284,0.0010816311892995144,1.0,0.0001250000059371814
0.5079603224992753,0.8799999952316284,0.000766524848586414,1.0,0.0001250000059371814
0.5076135009527206,0.8799999952316284,0.0006265946474741213,1.0,0.0001250000059371814
0.5085064798593522,0.8799999952316284,0.001174775735125877,1.0,0.0001250000059371814
0.5097834035754204,0.8799999952316284,0.0005324123536411207,1.0,0.0001250000059371814
0.5111834764480591,0.8799999952316284,0.000980827018065611,1.0,0.0001250000059371814
0.5120031237602234,0.8799999952316284,0.0006463419907959178,1.0,0.0001250000059371814
0.5068380326032639,0.8799999952316284,0.0025137255441222807,1.0,0.0001250000059371814
0.5035662531852723,0.8799999952316284,0.0008359641906281468,1.0,0.0001250000059371814
0.4975407272577286,0.8799999952316284,0.00483614957483951,1.0,0.0001250000059371814
0.49702916145324705,0.8600000143051147,0.0023698043929471168,1.0,0.0001250000059371814
0.4999891072511673,0.8600000143051147,0.0008125622582156212,1.0,0.0001250000059371814
0.5017153859138489,0.8600000143051147,0.0005621094809612259,1.0,0.0001250000059371814
0.5035036846995353,0.8600000143051147,0.000637320222449489,1.0,0.0001250000059371814
0.5059642523527146,0.8799999952316284,0.0018393451442534569,1.0,0.0001250000059371814
0.5082998543977737,0.8799999952316284,0.0005286463157972321,1.0,0.0001250000059371814
0.5103852778673172,0.8799999952316284,0.0005163010282558389,1.0,0.0001250000059371814
0.515189129114151,0.8799999952316284,0.002051098460651701,1.0,0.0001250000059371814
0.5138514965772629,0.8799999952316284,0.0005161405832041055,1.0,0.0001250000059371814
0.5165029525756836,0.8799999952316284,0.0006923463217390236,1.0,0.0001250000059371814
0.5167708814144134,0.8799999952316284,0.0007584792911075056,1.0,0.0001250000059371814
0.5192379593849182,0.8799999952316284,0.006119680696428986,1.0,0.0001250000059371814
0.5206049859523774,0.8799999952316284,0.00041829324909485875,1.0,0.0001250000059371814
0.5246408998966217,0.8799999952316284,0.0006913428296684287,1.0,0.0001250000059371814
0.5328316807746887,0.8799999952316284,0.001120284451462794,1.0,0.0001250000059371814
0.5323645532131195,0.8799999952316284,0.0008089287013717695,1.0,0.0001250000059371814
0.5288983106613159,0.8799999952316284,0.0010233508219243959,1.0,0.0001250000059371814
0.5271361291408538,0.8799999952316284,0.0007638757655513473,1.0,0.0001250000059371814
0.5257718145847321,0.8799999952316284,0.0009009674060507678,1.0,0.0001250000059371814
0.525407412648201,0.8799999952316284,0.000597376233781688,1.0,0.0001250000059371814
0.525241905450821,0.8799999952316284,0.0007291428795724641,1.0,0.0001250000059371814
0.5257341146469117,0.8799999952316284,0.0008715889445738867,1.0,0.0001250000059371814
0.5191555112600327,0.8799999952316284,0.004414055519737304,1.0,0.0001250000059371814
0.5096863865852356,0.8799999952316284,0.0010292138780641836,1.0,0.0001250000059371814
0.5082637757062912,0.8799999952316284,0.0008095833487459459,1.0,0.0001250000059371814
0.5073544353246688,0.8799999952316284,0.0006009590724715963,1.0,0.0001250000059371814
0.5066460251808167,0.8799999952316284,0.0010964060478727334,1.0,9.999999747378752e-05
0.5081860184669494,0.8799999952316284,0.0009202398476190865,1.0,9.999999747378752e-05
0.5103677690029145,0.8799999952316284,0.0007566357831819914,1.0,9.999999747378752e-05
0.5117550432682038,0.8799999952316284,0.001359388582932297,1.0,9.999999747378752e-05
0.5143965214490891,0.8799999952316284,0.0004252488288329914,1.0,9.999999747378752e-05
0.5160008102655411,0.8799999952316284,0.0003858175499772187,1.0,9.999999747378752e-05
0.5162539571523667,0.8799999952316284,0.0008376482423045672,1.0,9.999999747378752e-05
0.513795667886734,0.8799999952316284,0.0010361183754866942,1.0,9.999999747378752e-05
0.5131359696388245,0.8799999952316284,0.0008029898039239924,1.0,9.999999747378752e-05
0.511721494793892,0.8799999952316284,0.000324454403744312,1.0,9.999999747378752e-05
0.5093326508998871,0.8799999952316284,0.0016616180590062867,1.0,9.999999747378752e-05
0.5103919550776481,0.8799999952316284,0.00033199772879015653,1.0,9.999999747378752e-05
0.511652310192585,0.8799999952316284,0.0007492209566407837,1.0,9.999999747378752e-05
0.5133225932717324,0.8799999952316284,0.00033178295707330107,1.0,9.999999747378752e-05
0.5157095074653626,0.8799999952316284,0.0010847452082089148,1.0,9.999999747378752e-05
0.5161710768938065,0.8799999952316284,0.0008308019823743962,1.0,9.999999747378752e-05
0.5180616974830627,0.8799999952316284,0.0008828500707750208,1.0,9.999999747378752e-05
0.5323179811239243,0.8799999952316284,0.0023686057669692674,1.0,9.999999747378752e-05
0.529403805732727,0.8799999952316284,0.003243370295240311,1.0,9.999999747378752e-05
0.5149119317531585,0.8799999952316284,0.00034616845077835024,1.0,9.999999747378752e-05
0.5151738286018371,0.8799999952316284,0.00248468957724981,1.0,9.999999747378752e-05
0.5184180408716201,0.8799999952316284,0.0006165928600239568,1.0,9.999999747378752e-05
0.5204813599586486,0.8799999952316284,0.00037119452172191815,1.0,9.999999747378752e-05
0.521929132938385,0.8799999952316284,0.0005374107488023583,1.0,9.999999747378752e-05
0.5236562490463257,0.8799999952316284,0.0005159396030649077,1.0,9.999999747378752e-05
0.5253243923187256,0.8799999952316284,0.00045307530090212824,1.0,9.999999747378752e-05
0.5219741344451905,0.8799999952316284,0.0018461667306837626,1.0,9.999999747378752e-05
0.520248019695282,0.8799999952316284,0.0009573174815159291,1.0,9.999999747378752e-05
0.5189929664134979,0.8799999952316284,0.0011472944308479783,1.0,9.999999747378752e-05
0.5170921176671982,0.8799999952316284,0.0007035538845229893,1.0,9.999999747378752e-05
0.5173815727233887,0.8799999952316284,0.00047618570970371367,1.0,9.999999747378752e-05
0.516703861951828,0.8799999952316284,0.0010306985561328475,1.0,9.999999747378752e-05
0.5130752801895142,0.8799999952316284,0.0014470829708443488,1.0,9.999999747378752e-05
0.5135864973068237,0.8799999952316284,0.00045257460442371666,1.0,9.999999747378752e-05
0.5129681974649429,0.8799999952316284,0.00190117631063913,1.0,9.999999747378752e-05
0.5142558068037033,0.8799999952316284,0.0006755541122402065,1.0,9.999999747378752e-05
0.5148088783025742,0.8799999952316284,0.00025212993059540165,1.0,9.999999747378752e-05
0.5165972441434861,0.8799999952316284,0.0007129823039576877,1.0,9.999999747378752e-05
0.5170441448688508,0.8799999952316284,0.0013571009629231412,1.0,9.999999747378752e-05
0.516935658454895,0.8799999952316284,0.0002562788424256723,1.0,9.999999747378752e-05
0.5178992509841919,0.8799999952316284,0.0003374575957423076,1.0,9.999999747378752e-05
0.5190053403377533,0.8799999952316284,0.000365121359936893,1.0,9.999999747378752e-05
0.5171680271625518,0.8799999952316284,0.0013823281740769743,1.0,9.999999747378752e-05
0.517778354883194,0.8799999952316284,0.0006106657521741,1.0,9.999999747378752e-05
0.5185559242963791,0.8799999952316284,0.0004907154230750166,1.0,9.999999747378752e-05
0.5090172469615937,0.8600000143051147,0.0035068658296950163,1.0,9.999999747378752e-05
0.4986432507634163,0.8600000143051147,0.00038464241733890956,1.0,9.999999747378752e-05
0.49702716767787936,0.8600000143051147,0.0010706899396609516,1.0,9.999999747378752e-05
0.49796842485666276,0.8600000143051147,0.0006437907111831009,1.0,9.999999747378752e-05
0.5011099025607109,0.8600000143051147,0.0006797227440983988,1.0,9.999999747378752e-05
0.5038318142294884,0.8600000143051147,0.0013341996687813661,1.0,9.999999747378752e-05
0.5075239077210426,0.8600000143051147,0.00029895777188357895,1.0,9.999999747378752e-05
0.5097248002886772,0.8799999952316284,0.000970357314508874,1.0,9.999999747378752e-05
0.5110701709985733,0.8799999952316284,0.0005076398192613851,1.0,9.999999747378752e-05
0.5131446868181229,0.8799999952316284,0.0003095993182796519,1.0,9.999999747378752e-05
0.5153862535953522,0.8799999952316284,0.0005219649996433873,1.0,9.999999747378752e-05
0.5208657801151275,0.8799999952316284,0.0019706549617694693,1.0,9.999999747378752e-05
0.5232696294784546,0.8799999952316284,0.0005578930780757218,1.0,9.999999747378752e-05
0.5244653820991516,0.8799999952316284,0.00038738573712180366,1.0,9.999999747378752e-05
0.5190503895282745,0.8799999952316284,0.004703861254529329,1.0,9.999999747378752e-05
0.5147081911563873,0.8799999952316284,0.0008738869517401326,1.0,9.999999747378752e-05
0.45968617871403694,0.8999999761581421,0.00992831614712486,1.0,9.999999747378752e-05
0.4930532146245241,0.8799999952316284,0.0013017686396779027,1.0,9.999999747378752e-05
0.48452200889587405,0.8799999952316284,0.0019278220133855939,1.0,9.999999747378752e-05
0.477852650731802,0.8999999761581421,0.0032462919742101805,1.0,9.999999747378752e-05
0.4862639486789703,0.8799999952316284,0.0010526916725211778,1.0,9.999999747378752e-05
0.49522630870342255,0.8600000143051147,0.0005573158960032742,1.0,9.999999747378752e-05
0.5001747697591782,0.8600000143051147,0.001029251720319735,1.0,9.999999747378752e-05
0.5042809471487999,0.8600000143051147,0.001550495643459726,1.0,9.999999747378752e-05
0.5145172059535981,0.8799999952316284,0.00042743610501929654,1.0,9.999999747378752e-05
0.5197893053293228,0.8799999952316284,0.0006523171716253274,1.0,9.999999747378752e-05
0.5222153902053833,0.8799999952316284,0.0004005390583188273,1.0,9.999999747378752e-05
0.5203040570020676,0.8799999952316284,0.0007125176736735739,1.0,9.999999747378752e-05
0.5174231767654419,0.8799999952316284,0.001762737997341901,1.0,9.999999747378752e-05
0.5190727055072785,0.8799999952316284,0.00031952877689036543,1.0,9.999999747378752e-05
0.5245070099830628,0.8799999952316284,0.0015271270865923725,1.0,9.999999747378752e-05
0.5339808166027069,0.8799999952316284,0.000430053310628864,1.0,9.999999747378752e-05
0.5375022500753402,0.8799999952316284,0.00041159707288898064,1.0,9.999999747378752e-05
0.5385819733142853,0.8799999952316284,0.0003462922002654523,1.0,9.999999747378752e-05
0.5387742161750794,0.8799999952316284,0.00042467459497856906,1.0,9.999999747378752e-05
0.5344328820705414,0.8799999952316284,0.0008139207107888069,1.0,9.999999747378752e-05
0.5339293330907822,0.8799999952316284,0.0005829306093801279,1.0,9.999999747378752e-05
0.5311229765415192,0.8799999952316284,0.0012791496330464725,1.0,9.999999747378752e-05
0.5309543579816818,0.8799999952316284,0.000450179345352808,1.0,9.999999747378752e-05
0.5303202837705612,0.8799999952316284,0.00044467259249358904,1.0,9.999999747378752e-05
0.5315963864326477,0.8799999952316284,0.0006555079278768971,1.0,9.999999747378752e-05
0.5354047179222107,0.8799999952316284,0.0009456275292905048,1.0,9.999999747378752e-05
0.5381952792406082,0.8799999952316284,0.0003181087733537424,1.0,9.999999747378752e-05
0.5372734069824219,0.8799999952316284,0.0007523629905335838,1.0,9.999999747378752e-05
0.5368688076734542,0.8799999952316284,0.0008950357412686571,1.0,9.999999747378752e-05
0.5360350489616394,0.8799999952316284,0.0006557107968546916,1.0,9.999999747378752e-05
0.533336627483368,0.8799999952316284,0.00034121593853342347,1.0,9.999999747378752e-05
0.5330870807170868,0.8799999952316284,0.00042969925780198535,1.0,9.999999747378752e-05
0.534612512588501,0.8799999952316284,0.0003683789233036805,1.0,9.999999747378752e-05
0.5345837414264679,0.8799999952316284,0.0002493430882168468,1.0,9.999999747378752e-05
0.5332145094871521,0.8799999952316284,0.0007745980699837673,1.0,9.999999747378752e-05
0.5295746088027954,0.8799999952316284,0.0001942500806762837,1.0,9.999999747378752e-05
0.5287552595138549,0.8799999952316284,0.000409490785386879,1.0,9.999999747378752e-05
0.5338911473751068,0.8799999952316284,0.0006576163621502928,1.0,9.999999747378752e-05
0.5246919125318528,0.8799999952316284,0.0017642799495661166,1.0,9.999999747378752e-05
0.5158760368824005,0.8799999952316284,0.0014848013277514837,1.0,9.999999747378752e-05
0.513984552025795,0.8799999952316284,0.0002819755296513904,1.0,9.999999747378752e-05
0.5150558769702911,0.8799999952316284,0.0003109095552645158,1.0,9.999999747378752e-05
0.5162655472755432,0.8799999952316284,0.00024603341007605194,1.0,9.999999747378752e-05
0.5172061949968338,0.8799999952316284,0.0004146630992181599,1.0,9.999999747378752e-05
0.5190565317869187,0.8799999952316284,0.0006300379602180329,1.0,9.999999747378752e-05
0.5213783204555511,0.8799999952316284,0.0004310496835387312,1.0,9.999999747378752e-05
0.5240403950214386,0.8799999952316284,0.0004974241761374288,1.0,9.999999747378752e-05
0.5242325454950333,0.8799999952316284,0.0003166082977259066,1.0,9.999999747378752e-05
0.5254908442497254,0.8799999952316284,0.000475432732491754,1.0,9.999999747378752e-05
0.5254753023386002,0.8799999952316284,0.0004049490155011881,1.0,9.999999747378752e-05
0.5275239795446396,0.8799999952316284,0.00042987702036043627,1.0,9.999999747378752e-05
0.5293258130550385,0.8799999952316284,0.0005439888649561908,1.0,9.999999747378752e-05
0.5310266345739365,0.8799999952316284,0.0018566625120001845,1.0,9.999999747378752e-05
0.5264916241168975,0.8799999952316284,0.0017842680696048773,1.0,9.999999747378752e-05
0.525911858677864,0.8799999952316284,0.0008255847511463799,1.0,9.999999747378752e-05
0.525040990114212,0.8799999952316284,0.00020435155129234773,1.0,9.999999747378752e-05
0.5257798850536346,0.8799999952316284,0.0003833532377029769,1.0,9.999999747378752e-05
0.525969409942627,0.8799999952316284,0.0003661564820504282,1.0,9.999999747378752e-05
0.5234105616807938,0.8799999952316284,0.0006365499968524091,1.0,9.999999747378752e-05
0.5205132842063904,0.8799999952316284,0.0013740239883190952,1.0,9.999999747378752e-05
0.5203634977340699,0.8799999952316284,0.0005421058420324698,1.0,9.999999747378752e-05
0.5154007881879806,0.8799999952316284,0.0009833378337134491,1.0,9.999999747378752e-05
0.5158778101205825,0.8799999952316284,0.0004810411908692913,1.0,9.999999747378752e-05
0.5168698549270629,0.8799999952316284,0.000269660352205392,1.0,9.999999747378752e-05
0.5146489620208741,0.8799999952316284,0.001148764156823745,1.0,9.999999747378752e-05
0.5171583622694016,0.8799999952316284,0.0007022297802905086,1.0,9.999999747378752e-05
0.5212206423282624,0.8799999952316284,0.0006515290479001123,1.0,9.999999747378752e-05
0.5319724380970001,0.8799999952316284,0.0007769402094709221,1.0,9.999999747378752e-05
0.5373020827770233,0.8799999952316284,0.0002340370734600583,1.0,9.999999747378752e-05
0.5410060465335846,0.8799999952316284,0.00038096008574939333,1.0,9.999999747378752e-05
0.5419792026281357,0.8799999952316284,0.00029178264740039597,1.0,9.999999747378752e-05
0.5426089316606522,0.8799999952316284,0.0004204509161354508,1.0,9.999999747378752e-05
0.5446865260601044,0.8799999952316284,0.0002456818678183481,1.0,9.999999747378752e-05
0.5371671617031097,0.8799999952316284,0.0010588279845251236,1.0,9.999999747378752e-05
0.5324276745319366,0.8799999952316284,0.0009991295664804056,1.0,9.999999747378752e-05
0.5302227675914765,0.8799999952316284,0.0005629705658066087,1.0,9.999999747378752e-05
0.5295271873474121,0.8799999952316284,0.0004019443782453891,1.0,9.999999747378752e-05
0.5331267446279526,0.8799999952316284,0.000648685925261816,1.0,9.999999747378752e-05
0.5359317481517791,0.8799999952316284,0.00038344273489201444,1.0,9.999999747378752e-05
0.5379914462566375,0.8799999952316284,0.0003802377003012225,1.0,9.999999747378752e-05
0.5276931613683701,0.8799999952316284,0.0027458213720819914,1.0,9.999999747378752e-05
0.5231756657361984,0.8600000143051147,0.00027989863519906066,1.0,9.999999747378752e-05
0.5216228157281876,0.8600000143051147,0.0007558551515103318,1.0,9.999999747378752e-05
0.5215362966060638,0.8600000143051147,0.0003701157907926245,1.0,9.999999747378752e-05
0.524393105506897,0.8799999952316284,0.0004787431491422467,1.0,9.999999747378752e-05
0.5269578129053116,0.8799999952316284,0.0004456181079149246,1.0,9.999999747378752e-05
0.5194099336862564,0.8799999952316284,0.00428818438158487,1.0,9.999999747378752e-05
0.5048170924186707,0.8600000143051147,0.001376985882234294,1.0,9.999999747378752e-05
0.5002797573804856,0.8600000143051147,0.00040568923359387556,1.0,9.999999747378752e-05
0.49830410778522494,0.8600000143051147,0.000657714884437155,1.0,9.999999747378752e-05
0.4978984922170639,0.8600000143051147,0.0004892236494924874,1.0,9.999999747378752e-05
0.49986316859722135,0.8600000143051147,0.0003045781355467625,1.0,9.999999747378752e-05
0.5126791059970855,0.8799999952316284,0.0006693502677080687,1.0,9.999999747378752e-05
0.520312923192978,0.8799999952316284,0.0002505121381545905,1.0,9.999999747378752e-05
0.5239061504602432,0.8799999952316284,0.00021738713512604592,1.0,9.999999747378752e-05
0.5268217265605927,0.8799999952316284,0.00034354426534264346,1.0,9.999999747378752e-05
0.5271498918533325,0.8799999952316284,0.0003068697133130627,1.0,9.999999747378752e-05
0.526622986793518,0.8799999952316284,0.00031858847469266036,1.0,9.999999747378752e-05
0.5261710345745086,0.8799999952316284,0.000462719242204912,1.0,9.999999747378752e-05
0.5224712669849396,0.8799999952316284,0.0010529953324294183,1.0,9.999999747378752e-05
0.520190304517746,0.8799999952316284,0.0004248056051437743,1.0,9.999999747378752e-05
0.5199228167533875,0.8799999952316284,0.00029870185353502164,1.0,9.999999747378752e-05
0.5226338893175125,0.8799999952316284,0.0005194080862565897,1.0,9.999999747378752e-05
0.5243043005466461,0.8799999952316284,0.0006034147321770433,1.0,9.999999747378752e-05
0.5262365341186523,0.8799999952316284,0.00023149089138314595,1.0,9.999999747378752e-05
0.5292378157377243,0.8799999952316284,0.0003418574677198194,1.0,9.999999747378752e-05
0.5307092905044556,0.8799999952316284,0.0005939064500125824,1.0,9.999999747378752e-05
0.5319892883300781,0.8799999952316284,0.00031746770691825076,1.0,9.999999747378752e-05
0.5338745355606079,0.8799999952316284,0.00024250242204288953,1.0,9.999999747378752e-05
0.5353394895792007,0.8799999952316284,0.00032966214639600365,1.0,9.999999747378752e-05
0.5355215042829513,0.8799999952316284,0.0001882249147456605,1.0,9.999999747378752e-05
0.5356293231248855,0.8799999952316284,0.00032515040584257804,1.0,9.999999747378752e-05
0.5347412794828414,0.8799999952316284,0.0009929764142725616,1.0,9.999999747378752e-05
0.5343173533678055,0.8799999952316284,0.0002800790269247955,1.0,9.999999747378752e-05
0.5385805636644363,0.8799999952316284,0.0004074558957654517,1.0,9.999999747378752e-05
0.5312850028276443,0.8799999952316284,0.000871566055866424,1.0,9.999999747378752e-05
0.5293156415224075,0.8799999952316284,0.00014313657375168986,1.0,9.999999747378752e-05
0.530182832479477,0.8799999952316284,0.0003231392416637391,1.0,9.999999747378752e-05
0.529920494556427,0.8799999952316284,0.0003889254989189794,1.0,9.999999747378752e-05
0.530467289686203,0.8799999952316284,0.00025610278898966497,1.0,9.999999747378752e-05
0.5318279564380646,0.8799999952316284,0.0002133543552190531,1.0,9.999999747378752e-05
0.5324192821979523,0.8799999952316284,0.0006181719203596003,1.0,9.999999747378752e-05
0.5333193987607956,0.8799999952316284,0.0002088101602566894,1.0,9.999999747378752e-05
0.5364188253879547,0.8799999952316284,0.0009938759314536583,1.0,9.999999747378752e-05
0.536592298746109,0.8799999952316284,0.00012994013559364248,1.0,9.999999747378752e-05
0.536262035369873,0.8799999952316284,0.00031076709710760043,1.0,9.999999747378752e-05
0.5395064607262612,0.8799999952316284,0.0026741466703242623,1.0,9.999999747378752e-05
0.5514113306999207,0.8999999761581421,0.00030547287606168537,1.0,9.999999747378752e-05
0.549322035908699,0.8999999761581421,0.0002933080220827833,1.0,9.999999747378752e-05
0.5414105132222176,0.8799999952316284,0.000399411930993665,1.0,9.999999747378752e-05
0.535115459561348,0.8600000143051147,0.0003708610427565873,1.0,9.999999747378752e-05
0.5321900546550751,0.8600000143051147,0.0007148781114665326,1.0,9.999999747378752e-05
0.5352936208248138,0.8799999952316284,0.0009892103720630986,1.0,9.999999747378752e-05
0.5408047676086426,0.8799999952316284,0.0008073481425526552,1.0,9.999999747378752e-05
0.5456119894981384,0.8799999952316284,0.00046770765038672835,1.0,9.999999747378752e-05
0.5467607587575912,0.8799999952316284,0.0005120441743201809,1.0,9.999999747378752e-05
0.5440070688724518,0.8799999952316284,0.0003390474827028811,1.0,9.999999747378752e-05
0.5293247044086457,0.8799999952316284,0.001197651158872759,1.0,9.999999747378752e-05
0.5238872736692428,0.8600000143051147,0.00037289134561433455,1.0,9.999999747378752e-05
0.5333118945360183,0.8600000143051147,0.0015497026946832194,1.0,9.999999747378752e-05
0.5409796074032783,0.8799999952316284,0.0005166265043953899,1.0,9.999999747378752e-05
0.543703955411911,0.8799999952316284,0.0002346525518078124,1.0,9.999999747378752e-05
0.5458644747734069,0.8600000143051147,0.00026454038779775144,1.0,9.999999747378752e-05
0.5491369098424912,0.8799999952316284,0.00020141873792454135,1.0,9.999999747378752e-05
0.5529435783624649,0.8799999952316284,0.000363333886343753,1.0,9.999999747378752e-05
0.5565334886312485,0.8799999952316284,0.0002803603420034051,1.0,9.999999747378752e-05
0.5590835571289062,0.8799999952316284,0.0002755531982984394,1.0,9.999999747378752e-05
0.559184780716896,0.8799999952316284,0.0007072636399243493,1.0,9.999999747378752e-05
0.5555571168661118,0.8799999952316284,0.00021996465911797714,1.0,9.999999747378752e-05
0.5607778280973434,0.8799999952316284,0.0004582403758831788,1.0,9.999999747378752e-05
0.5621387422084808,0.8799999952316284,0.0003072514802624937,1.0,9.999999747378752e-05
0.5663762867450715,0.8799999952316284,0.00037918709422228857,1.0,9.999999747378752e-05
0.5883113980293274,0.8799999952316284,0.0014164918931783177,1.0,9.999999747378752e-05
0.5924828678369523,0.8799999952316284,0.0003699088516441407,1.0,9.999999747378752e-05
0.5929800570011139,0.8799999952316284,0.0002601806489110459,1.0,9.999999747378752e-05
0.5917251884937287,0.8799999952316284,0.0002922916628449457,1.0,9.999999747378752e-05
0.5848343312740326,0.8799999952316284,0.0005392648065026151,1.0,9.999999747378752e-05
0.5762590050697327,0.8799999952316284,0.0005368446283682716,1.0,9.999999747378752e-05
0.5725680828094483,0.8799999952316284,0.0002798539011564571,1.0,9.999999747378752e-05
0.572324475646019,0.8799999952316284,0.00021603316672553775,1.0,9.999999747378752e-05
0.5683237075805664,0.8799999952316284,0.0007098673519067234,1.0,9.999999747378752e-05
0.5696948111057282,0.8799999952316284,0.0007825108608813025,1.0,9.999999747378752e-05
0.5702349603176117,0.8799999952316284,0.0001240694684383925,1.0,9.999999747378752e-05
0.5535769939422608,0.8799999952316284,0.0009862359012913658,1.0,9.999999747378752e-05
0.5470787405967712,0.8799999952316284,0.0006949533226361382,1.0,9.999999747378752e-05
0.5425792008638382,0.8799999952316284,0.00013248552022560034,1.0,9.999999747378752e-05
0.5425175309181214,0.8799999952316284,0.00040899655687098857,1.0,9.999999747378752e-05
0.5445605903863907,0.8799999952316284,0.0002906079695094377,1.0,9.999999747378752e-05
0.5473166048526764,0.8799999952316284,0.00021482927477336488,1.0,9.999999747378752e-05
0.5469146281480789,0.8799999952316284,0.0004655252345401095,1.0,9.999999747378752e-05
0.5492596060037613,0.8799999952316284,0.00031474224124394823,1.0,9.999999747378752e-05
0.5570282906293869,0.8799999952316284,0.00046721734252059833,1.0,9.999999747378752e-05
0.5604562878608703,0.8799999952316284,0.0002807799115544185,1.0,9.999999747378752e-05
0.5636033177375793,0.8799999952316284,0.0005697879176295828,1.0,9.999999747378752e-05
0.56146999001503,0.8799999952316284,0.0002675253352208529,1.0,9.999999747378752e-05
0.5584076225757599,0.8799999952316284,0.0005198209557420342,1.0,9.999999747378752e-05
0.550270265340805,0.8799999952316284,0.00034012955984508153,1.0,9.999999747378752e-05
0.5483017027378082,0.8799999952316284,0.0002512080374799552,1.0,9.999999747378752e-05
0.5453262746334075,0.8799999952316284,0.00028531290590763094,1.0,9.999999747378752e-05
0.5383277297019958,0.8799999952316284,0.0005624415214697364,1.0,9.999999747378752e-05
0.537636336684227,0.8799999952316284,0.0004543459013802931,1.0,9.999999747378752e-05
0.5342054486274719,0.8799999952316284,0.00016440449762740174,1.0,9.999999747378752e-05
0.535685908794403,0.8799999952316284,0.00016913707731873727,1.0,9.999999747378752e-05
0.5377581059932709,0.8799999952316284,0.0008829476777464151,1.0,9.999999747378752e-05
0.5406209588050842,0.8799999952316284,0.0002563550002378179,1.0,9.999999747378752e-05
0.5438681691884995,0.8799999952316284,0.00021136381255928426,1.0,9.999999747378752e-05
0.5425884962081909,0.8799999952316284,0.0016404161804530303,1.0,9.999999747378752e-05
0.5552530646324157,0.8799999952316284,0.0068799880787992155,1.0,9.999999747378752e-05
0.5415387928485871,0.8799999952316284,0.0008249681901361328,1.0,9.999999747378752e-05
0.5294144451618195,0.8799999952316284,0.0002822674126946367,1.0,9.999999747378752e-05
0.5240223705768585,0.8799999952316284,0.0005061892825324321,1.0,9.999999747378752e-05
0.5170895308256149,0.8799999952316284,0.0006977851749979891,1.0,9.999999747378752e-05
0.5042694911360741,0.8600000143051147,0.0012650208082050085,1.0,9.999999747378752e-05
0.5091854989528656,0.8600000143051147,0.00021555292114499024,1.0,9.999999747378752e-05
0.5081334725022316,0.8600000143051147,0.0005421175323135685,1.0,9.999999747378752e-05
0.5069204851984978,0.8600000143051147,0.0005865209255716764,1.0,9.999999747378752e-05
0.5069106355309486,0.8600000143051147,0.0010887490498134866,1.0,9.999999747378752e-05
0.5043348491191864,0.8600000143051147,0.0005147840609424747,1.0,9.999999747378752e-05
0.5075056970119476,0.8600000143051147,0.0008203541015973315,1.0,9.999999747378752e-05
0.524478805065155,0.8799999952316284,0.0006379625112458598,1.0,9.999999747378752e-05
0.5367210030555725,0.8799999952316284,0.00018160644540330396,1.0,9.999999747378752e-05
0.5440602600574493,0.8799999952316284,0.00046084944260655903,1.0,9.999999747378752e-05
0.5444971203804017,0.8799999952316284,0.00018363105009484572,1.0,9.999999747378752e-05
0.5426277875900268,0.8799999952316284,0.0013219066804595059,1.0,9.999999747378752e-05
0.5367765605449677,0.8799999952316284,0.00024378707312280312,1.0,9.999999747378752e-05
0.5332699298858643,0.8799999952316284,0.00034809619501174893,1.0,9.999999747378752e-05
0.5300479978322983,0.8799999952316284,0.0003877980449033203,1.0,9.999999747378752e-05
0.5327765315771102,0.8799999952316284,0.00038706594496034085,1.0,9.999999747378752e-05
0.5266014814376831,0.8799999952316284,0.0007090585735568311,1.0,9.999999747378752e-05
0.5253764778375626,0.8799999952316284,0.00017376165615132778,1.0,9.999999747378752e-05
0.523166736960411,0.8799999952316284,0.0008337288807524601,1.0,9.999999747378752e-05
0.5418309777975082,0.8799999952316284,0.0011350530745403375,1.0,9.999999747378752e-05
0.5487210750579834,0.8799999952316284,0.0004328142662416212,1.0,9.999999747378752e-05
0.5475833803415299,0.8799999952316284,0.0002513856263249181,1.0,9.999999747378752e-05
0.547225758433342,0.8799999952316284,0.0001574302074004663,1.0,9.999999747378752e-05
0.5463413834571839,0.8799999952316284,0.00025236662477254865,1.0,9.999999747378752e-05
0.5421024918556213,0.8799999952316284,0.0008086359717708547,1.0,9.999999747378752e-05
0.5292517423629761,0.8799999952316284,0.0007457531955878949,1.0,9.999999747378752e-05
0.515914797782898,0.8799999952316284,0.0003716214359883452,1.0,9.999999747378752e-05
0.5151233792304992,0.8600000143051147,0.0008108156569505808,1.0,9.999999747378752e-05
0.5182217717170715,0.8600000143051147,0.00021424583974294364,1.0,9.999999747378752e-05
0.519898210465908,0.8600000143051147,0.00010530485997151118,1.0,9.999999747378752e-05
0.5206690311431885,0.8600000143051147,0.00031975033998605796,1.0,9.999999747378752e-05
0.5218389987945556,0.8799999952316284,0.00047448488330701364,1.0,9.999999747378752e-05
0.5235131949186325,0.8799999952316284,0.0003343349369970383,1.0,9.999999747378752e-05
0.5335246235132217,0.8799999952316284,0.0010131309285497992,1.0,9.999999747378752e-05
0.5422855973243713,0.8799999952316284,0.00030068880987528247,1.0,9.999999747378752e-05
0.5468787670135498,0.8799999952316284,0.0001769843467627652,1.0,9.999999747378752e-05
0.5496969282627105,0.8799999952316284,0.000262128150643548,1.0,9.999999747378752e-05
0.5487440198659896,0.8799999952316284,0.0002688538261281792,1.0,9.999999747378752e-05
0.547118216753006,0.8799999952316284,0.0004473846638575196,1.0,9.999999747378752e-05
0.5437236785888672,0.8799999952316284,0.00013101884178468026,1.0,9.999999747378752e-05
0.5443832069635391,0.8799999952316284,0.0003099101420957595,1.0,9.999999747378752e-05
0.5465218484401703,0.8799999952316284,0.00011149764395668171,1.0,9.999999747378752e-05
0.5480287551879883,0.8799999952316284,0.0001437977498426335,1.0,9.999999747378752e-05
0.5494356602430344,0.8799999952316284,0.00034344505165790907,1.0,9.999999747378752e-05
0.5582863330841065,0.8799999952316284,0.0002412243171420414,1.0,9.999999747378752e-05
0.551720142364502,0.8799999952316284,0.000377029880110058,1.0,9.999999747378752e-05
0.5417580395936966,0.8799999952316284,0.0012867508252384142,1.0,9.999999747378752e-05
0.540831333398819,0.8799999952316284,0.0004913116084935609,1.0,9.999999747378752e-05
0.5431794464588166,0.8799999952316284,0.0002907542850152822,1.0,9.999999747378752e-05
0.5462308347225189,0.8799999952316284,9.445791692996863e-05,1.0,9.999999747378752e-05
0.547283923625946,0.8799999952316284,0.00025746096325747204,1.0,9.999999747378752e-05
0.548204493522644,0.8799999952316284,0.00019921042658097577,1.0,9.999999747378752e-05
0.4757901310920715,0.8600000143051147,0.0014856021974992474,1.0,9.999999747378752e-05
0.45583668947219846,0.8600000143051147,0.0003371876562596299,1.0,9.999999747378752e-05
0.46578066796064377,0.8600000143051147,0.000585605415108148,1.0,9.999999747378752e-05
0.47897422313690186,0.8600000143051147,0.00047316290401795414,1.0,9.999999747378752e-05
0.5009403049945831,0.8600000143051147,0.0007542640385509003,1.0,9.999999747378752e-05
0.5251452893018722,0.8799999952316284,0.00012379717009025626,1.0,9.999999747378752e-05
0.5377223402261734,0.8799999952316284,0.00025869836172205397,1.0,9.999999747378752e-05
0.5472428888082504,0.8799999952316284,0.00017371631984133273,1.0,9.999999747378752e-05
0.552976930141449,0.8799999952316284,0.00043198916682740673,1.0,9.999999747378752e-05
0.5541636198759079,0.8799999952316284,9.570022011757828e-05,1.0,9.999999747378752e-05
0.5572879433631897,0.8799999952316284,0.00041823117862804793,1.0,9.999999747378752e-05
0.5586409866809845,0.8799999952316284,8.374085264222231e-05,1.0,9.999999747378752e-05
0.5611132562160492,0.8799999952316284,0.0002746273072261829,1.0,9.999999747378752e-05
0.563474702835083,0.8799999952316284,0.0002881659180275165,1.0,9.999999747378752e-05
0.5643941700458527,0.8799999952316284,0.0002734395126026357,1.0,9.999999747378752e-05
0.5656574219465256,0.8799999952316284,0.0003231959562981501,1.0,9.999999747378752e-05
0.5656988382339477,0.8799999952316284,0.000751778087214916,1.0,9.999999747378752e-05
0.5619799435138703,0.8799999952316284,0.00028751102145179174,1.0,9.999999747378752e-05
0.5603548049926758,0.8600000143051147,0.00045845494350942316,1.0,9.999999747378752e-05
0.9242788888514042,0.8600000143051147,0.010613945288059767,1.0,9.999999747378752e-05
0.5291133940219879,0.8600000143051147,0.023356155063811456,0.9800000190734863,9.999999747378752e-05
2.915479588508606,0.6800000071525574,0.00879369002650492,1.0,9.999999747378752e-05
1.9351974725723267,0.7200000286102295,0.00389502510370221,1.0,9.999999747378752e-05
1.239918726682663,0.800000011920929,0.0011499347878270783,1.0,9.999999747378752e-05
0.6653561666607857,0.8799999952316284,0.00915751139400527,1.0,9.999999747378752e-05
0.6274909097701311,0.8799999952316284,0.0021275347287883052,1.0,9.999999747378752e-05
0.665409392118454,0.8799999952316284,0.006639405054738745,1.0,9.999999747378752e-05
0.8092587798833847,0.8600000143051147,0.001888751133083133,1.0,9.999999747378752e-05
0.8669101387262345,0.8799999952316284,0.002059960732003674,1.0,9.999999747378752e-05
0.8382565766572952,0.8799999952316284,0.0012189385612145997,1.0,9.999999747378752e-05
0.7813255876302719,0.8799999952316284,0.0004648667149012908,1.0,9.999999747378752e-05
0.7306061923503876,0.8399999737739563,0.0005623998149530962,1.0,9.999999747378752e-05
0.6902256637811661,0.8399999737739563,0.0006450459572079126,1.0,9.999999747378752e-05
0.6626155793666839,0.8399999737739563,0.0005363367701647804,1.0,9.999999747378752e-05
0.6414235711097718,0.8399999737739563,0.0012993071290111403,1.0,9.999999747378752e-05
0.6255536437034607,0.8399999737739563,0.00046981355772004465,1.0,9.999999747378752e-05
0.6088077485561371,0.8600000143051147,0.00047841228515608234,1.0,9.999999747378752e-05
0.5971824049949646,0.8799999952316284,0.00098477802312118,1.0,9.999999747378752e-05
0.5949979305267334,0.8799999952316284,0.0003556779287464451,1.0,9.999999747378752e-05
0.5902034401893616,0.8799999952316284,0.000959179958954337,1.0,9.999999747378752e-05
0.5863160610198974,0.8799999952316284,0.00040941884344647406,1.0,9.999999747378752e-05
0.5777096569538116,0.8799999952316284,0.0007986141339642927,1.0,9.999999747378752e-05
0.5717723399400712,0.8799999952316284,0.001019281653134385,1.0,9.999999747378752e-05
0.5627493381500244,0.8799999952316284,0.00020076473083463497,1.0,9.999999747378752e-05
0.5639944851398468,0.8600000143051147,0.004142943091574125,1.0,9.999999747378752e-05
0.4740608692169189,0.8600000143051147,0.010524983738287119,1.0,9.999999747378752e-05
0.43913510739803313,0.8799999952316284,0.00179470418515848,1.0,9.999999747378752e-05
0.4414967715740204,0.8999999761581421,0.0009971458639483899,1.0,9.999999747378752e-05
0.5263464484363795,0.8799999952316284,0.003386747007607482,1.0,9.999999747378752e-05
0.5741199448704719,0.8799999952316284,0.0011726290860679,1.0,9.999999747378752e-05
0.5742494720965624,0.8799999952316284,0.0010918543412117288,1.0,9.999999747378752e-05
0.5664311058819294,0.8999999761581421,0.0025070416522794403,1.0,9.999999747378752e-05
0.554684579372406,0.8999999761581421,0.0008269097623269772,1.0,9.999999747378752e-05
0.5441283985972405,0.8999999761581421,0.0015426414494868368,1.0,9.999999747378752e-05
0.532110120356083,0.8999999761581421,0.0005464820522320224,1.0,9.999999747378752e-05
0.5266305841505527,0.8999999761581421,0.0005180441585252993,1.0,9.999999747378752e-05
0.5229642242193222,0.8600000143051147,0.0004099089337614714,1.0,9.999999747378752e-05
0.5203234538435936,0.8600000143051147,0.00017620786602492444,1.0,9.999999747378752e-05
0.5487881228327751,0.8600000143051147,0.002872476733318763,1.0,9.999999747378752e-05
0.5648500353097916,0.8600000143051147,0.0004333015393058304,1.0,9.999999747378752e-05
0.5664894461631775,0.8600000143051147,0.0006877435647766106,1.0,9.999999747378752e-05
0.5657274216413498,0.8600000143051147,0.0004109124136448372,1.0,9.999999747378752e-05
0.564114636182785,0.8600000143051147,0.00018580810938146898,1.0,9.999999747378752e-05
0.5627868145704269,0.8600000143051147,0.00047895149255055,1.0,9.999999747378752e-05
0.5607655435800553,0.8600000143051147,0.00048501294295419937,1.0,9.999999747378752e-05
0.557870215177536,0.8799999952316284,0.0004945322041749022,1.0,9.999999747378752e-05
0.55392926633358,0.8799999952316284,0.0007219314036774449,1.0,9.999999747378752e-05
0.5521361827850342,0.8799999952316284,0.0006865221701445989,1.0,9.999999747378752e-05
0.5494932651519775,0.8799999952316284,0.0003580678230719059,1.0,9.999999747378752e-05
0.5497650623321533,0.8799999952316284,0.00044100710620114113,1.0,9.999999747378752e-05
0.5499660342931747,0.8799999952316284,0.0005752294749981956,1.0,9.999999747378752e-05
0.5507843166589736,0.8799999952316284,0.0003013312540133484,1.0,9.999999747378752e-05
0.5519753277301789,0.8799999952316284,0.0001601471643880359,1.0,9.999999747378752e-05
0.5539378941059112,0.8799999952316284,0.0003398382443265291,1.0,9.999999747378752e-05
0.5555864751338959,0.8799999952316284,0.0004256449483364122,1.0,9.999999747378752e-05
0.5523825079202652,0.8799999952316284,0.0010322024434572085,1.0,9.999999747378752e-05
0.5525572240352631,0.8799999952316284,0.00026140042682527566,1.0,9.999999747378752e-05
0.5528431922197342,0.8799999952316284,0.0007490451585908886,1.0,9.999999747378752e-05
0.5564647853374481,0.8799999952316284,0.0009545858920319006,1.0,9.999999747378752e-05
0.5502261161804199,0.8799999952316284,0.0009066822942259023,1.0,9.999999747378752e-05
0.54135702252388,0.8799999952316284,0.0008632999022665899,1.0,9.999999747378752e-05
0.5375014096498489,0.8799999952316284,0.00029618531552841885,1.0,9.999999747378752e-05
0.5345313131809235,0.8600000143051147,0.0008440863704890944,1.0,9.999999747378752e-05
0.53221016228199,0.8799999952316284,0.0005019197031288058,1.0,9.999999747378752e-05
0.5316990554332733,0.8799999952316284,0.0003259399467424373,1.0,9.999999747378752e-05
0.5320726424455643,0.8799999952316284,0.00019882439300999977,1.0,9.999999747378752e-05
0.5369103044271469,0.8600000143051147,0.0004972240290953778,1.0,9.999999747378752e-05
0.5404565453529357,0.8799999952316284,0.0003827667602308793,1.0,9.999999747378752e-05
0.540369063615799,0.8799999952316284,0.0002912711919634603,1.0,9.999999747378752e-05
0.5403678059577942,0.8799999952316284,0.0002722784636716824,1.0,9.999999747378752e-05
0.5405220270156861,0.8799999952316284,0.0005545984909986146,1.0,9.999999747378752e-05
0.5442788869142532,0.8799999952316284,0.00027559888003452214,1.0,9.999999747378752e-05
0.5477868527173996,0.8799999952316284,0.0003386326294275932,1.0,9.999999747378752e-05
0.5520754814147949,0.8799999952316284,0.0006719301498378627,1.0,9.999999747378752e-05
0.5525157302618027,0.8799999952316284,0.00020934021813445725,1.0,9.999999747378752e-05
0.5517450660467148,0.8799999952316284,0.0005157478808541782,1.0,9.999999747378752e-05
0.5483673989772797,0.8799999952316284,0.00028404111217241736,1.0,9.999999747378752e-05
0.5344073295593261,0.8799999952316284,0.007263547578986618,1.0,9.999999747378752e-05
0.530576103925705,0.8399999737739563,0.0019822129601379857,1.0,9.999999747378752e-05
0.5604655683040619,0.8399999737739563,0.0027750908731832167,1.0,9.999999747378752e-05
0.5240421414375305,0.8600000143051147,0.0017990675973123872,1.0,9.999999747378752e-05
0.5078201115131378,0.8799999952316284,0.0007740268207271584,1.0,9.999999747378752e-05
0.5060032337903977,0.8799999952316284,0.0002546963096392574,1.0,9.999999747378752e-05
0.5073145151138305,0.8600000143051147,0.0002992962658026954,1.0,9.999999747378752e-05
0.5121603071689605,0.8600000143051147,0.0011281857900030446,1.0,9.999999747378752e-05
0.5130136519670486,0.8600000143051147,0.0006689412686682772,1.0,9.999999747378752e-05
0.5156487971544266,0.8600000143051147,0.00038670298890792766,1.0,9.999999747378752e-05
0.5181375861167907,0.8600000143051147,0.00017743495991453528,1.0,9.999999747378752e-05
0.5218973129987716,0.8600000143051147,0.0014508987518638606,1.0,9.999999747378752e-05
0.5278168156743049,0.8600000143051147,0.0005955795088084415,1.0,9.999999747378752e-05
0.5314131513237953,0.8600000143051147,0.0005179360265174182,1.0,9.999999747378752e-05
0.5399505540728569,0.8600000143051147,0.0008361305517610162,1.0,9.999999747378752e-05
0.5451927989721298,0.8600000143051147,0.0005491300980793312,1.0,9.999999747378752e-05
0.5470216542482376,0.8600000143051147,0.00014125916495686397,1.0,9.999999747378752e-05
0.5495984837412834,0.8600000143051147,0.0004019428943138337,1.0,9.999999747378752e-05
0.55186787545681,0.8600000143051147,0.0004230774604366161,1.0,9.999999747378752e-05
0.5534238934516906,0.8600000143051147,0.0002606934182040277,1.0,9.999999747378752e-05
0.5534086465835572,0.8600000143051147,0.0005485588235387695,1.0,9.999999747378752e-05
0.5533485263586044,0.8600000143051147,0.0002076345459499862,1.0,9.999999747378752e-05
0.5560713410377502,0.8600000143051147,0.00038807384044048376,1.0,9.999999747378752e-05
0.5577084451913834,0.8600000143051147,0.000253968207653088,1.0,9.999999747378752e-05
0.5574235886335372,0.8600000143051147,0.0005441229965072125,1.0,9.999999747378752e-05
0.5547883033752441,0.8600000143051147,0.0009355808811960742,1.0,9.999999747378752e-05
0.5524450898170471,0.8799999952316284,0.00033969550131587314,1.0,9.999999747378752e-05
0.547523245215416,0.8799999952316284,0.0010341654342482798,1.0,9.999999747378752e-05
0.5471528112888336,0.8799999952316284,0.00019623300941020715,1.0,9.999999747378752e-05
0.5473916292190552,0.8799999952316284,0.0005767923903476913,1.0,9.999999747378752e-05
0.5481216371059418,0.8799999952316284,0.00017358555560349488,1.0,9.999999747378752e-05
0.5477184414863586,0.8600000143051147,0.0004842275218834402,1.0,9.999999747378752e-05
0.5479878157377243,0.8600000143051147,0.00017565071557328337,1.0,9.999999747378752e-05
0.5482430785894394,0.8600000143051147,0.0004222432105962071,1.0,9.999999747378752e-05
0.5489995360374451,0.8600000143051147,0.0002295401456649415,1.0,9.999999747378752e-05
0.5494443148374557,0.8600000143051147,0.00024176065880965325,1.0,9.999999747378752e-05
0.5484002709388733,0.8600000143051147,0.0002122600290022092,1.0,9.999999747378752e-05
0.5489573568105698,0.8600000143051147,0.00016839147574501112,1.0,9.999999747378752e-05
0.5499906480312348,0.8600000143051147,0.00041977445216616615,1.0,9.999999747378752e-05
0.5526675581932068,0.8600000143051147,0.00043876714480575176,1.0,9.999999747378752e-05
0.555128276348114,0.8600000143051147,0.00022910250663699117,1.0,9.999999747378752e-05
0.5562862098217011,0.8600000143051147,0.00017238396321772598,1.0,9.999999747378752e-05
0.5555621176958084,0.8600000143051147,0.00032998134975059656,1.0,9.999999747378752e-05
0.5566090941429138,0.8600000143051147,0.0001322727166552795,1.0,9.999999747378752e-05
0.5570348978042603,0.8600000143051147,0.0001818830583943054,1.0,9.999999747378752e-05
0.5569371283054352,0.8600000143051147,0.00016847602100824587,1.0,9.999999747378752e-05
0.5566551059484481,0.8600000143051147,0.00017252341240237,1.0,9.999999747378752e-05
0.5564041376113892,0.8600000143051147,0.00015297588161047315,1.0,9.999999747378752e-05
0.5571385741233825,0.8600000143051147,0.00018002160650212317,1.0,9.999999747378752e-05
0.5581577390432357,0.8600000143051147,0.00021678939974663082,1.0,9.999999747378752e-05
0.5596278190612793,0.8799999952316284,0.00021804208499816015,1.0,9.999999747378752e-05
0.5602718979120255,0.8799999952316284,0.0002652970597409876,1.0,9.999999747378752e-05
0.5628408432006836,0.8799999952316284,0.00010614714592520613,1.0,9.999999747378752e-05
0.5634095877408981,0.8799999952316284,0.00013073060508759227,1.0,9.999999747378752e-05
0.5637415081262589,0.8799999952316284,0.0005169856791326311,1.0,9.999999747378752e-05
0.5650126099586487,0.8799999952316284,0.00010204682293988299,1.0,9.999999747378752e-05
0.5642110586166382,0.8799999952316284,0.0002138330817615497,1.0,9.999999747378752e-05
0.5623816639184952,0.8799999952316284,0.0005716987932828487,1.0,9.999999747378752e-05
0.5634657502174377,0.8799999952316284,0.00023819710622774437,1.0,9.999999747378752e-05
0.5639886617660522,0.8799999952316284,0.00016179641879716656,1.0,9.999999747378752e-05
0.5618282914161682,0.8799999952316284,0.0003124066028249217,1.0,9.999999747378752e-05
0.5618338644504547,0.8799999952316284,0.0001575196936755674,1.0,9.999999747378752e-05
0.5605675041675567,0.8799999952316284,0.0003061978321056813,1.0,9.999999747378752e-05
0.5611251473426819,0.8799999952316284,0.00022372219518729253,1.0,9.999999747378752e-05
0.5624658912420273,0.8799999952316284,0.00023038622202875558,1.0,9.999999747378752e-05
0.5559876322746277,0.8600000143051147,0.0005281734724121634,1.0,9.999999747378752e-05
0.5554184556007385,0.8600000143051147,0.00013196894051361596,1.0,9.999999747378752e-05
0.5566884994506835,0.8600000143051147,0.00031532245739072093,1.0,9.999999747378752e-05
0.5585453331470489,0.8600000143051147,0.00020113088739890373,1.0,9.999999747378752e-05
0.5601079761981964,0.8600000143051147,0.00018479581367500942,1.0,9.999999747378752e-05
0.5592615455389023,0.8600000143051147,0.0007461154988050112,1.0,9.999999747378752e-05
0.5569033831357956,0.8600000143051147,0.0003911266494469601,1.0,9.999999747378752e-05
0.5567231804132462,0.8600000143051147,0.00019322624430060387,1.0,9.999999747378752e-05
0.5579276233911514,0.8600000143051147,0.00024447812957077985,1.0,9.999999747378752e-05
0.5599150389432908,0.8600000143051147,0.00011925504313694545,1.0,9.999999747378752e-05
0.5618975907564163,0.8600000143051147,9.472953461227007e-05,1.0,9.999999747378752e-05
0.5632429927587509,0.8600000143051147,0.0003193650936736958,1.0,9.999999747378752e-05
0.5654648840427399,0.8600000143051147,0.00012298718829697463,1.0,9.999999747378752e-05
0.5667530357837677,0.8600000143051147,0.0001858067564171506,1.0,9.999999747378752e-05
0.5674526035785675,0.8600000143051147,0.00032537806073378305,1.0,9.999999747378752e-05
0.5686019837856293,0.8600000143051147,0.00013320111893335706,1.0,9.999999747378752e-05
0.5687811076641083,0.8600000143051147,0.00026276945045538013,1.0,9.999999747378752e-05
0.5684512972831726,0.8600000143051147,0.00014273272408900085,1.0,9.999999747378752e-05
0.5676665008068085,0.8600000143051147,0.000506736680654285,1.0,9.999999747378752e-05
0.5671435594558716,0.8600000143051147,0.00021098475481267086,1.0,9.999999747378752e-05
0.5697791039943695,0.8600000143051147,0.00018928611152659868,1.0,9.999999747378752e-05
0.5729133158922195,0.8600000143051147,0.0006224454849871108,1.0,9.999999747378752e-05
0.5812029361724853,0.8600000143051147,0.00027984210892100235,1.0,9.999999747378752e-05
0.5850710064172745,0.8600000143051147,0.00021955733263894216,1.0,9.999999747378752e-05
0.5834463477134705,0.8600000143051147,0.0001843382906372426,1.0,9.999999747378752e-05
0.583275118470192,0.8799999952316284,0.00013051876157987863,1.0,9.999999747378752e-05
0.582532775402069,0.8799999952316284,0.00019869779498549178,1.0,9.999999747378752e-05
0.5916404694318771,0.8799999952316284,0.0015842211124436289,1.0,9.999999747378752e-05
0.6012621492147445,0.8799999952316284,9.443479339097394e-05,1.0,9.999999747378752e-05
0.6033250510692596,0.8799999952316284,0.00013865653454558924,1.0,9.999999747378752e-05
0.5782169431447983,0.8799999952316284,0.0012531892320112093,1.0,9.999999747378752e-05
0.5706360578536988,0.8799999952316284,0.0005882730761186394,1.0,9.999999747378752e-05
0.5726534187793731,0.8799999952316284,0.00021075530548841925,1.0,9.999999747378752e-05
0.5728189796209335,0.8600000143051147,0.0007029865933873225,1.0,9.999999747378752e-05
0.5739306688308716,0.8799999952316284,0.0002661379555320309,1.0,9.999999747378752e-05
0.5782073974609375,0.8799999952316284,0.0005576991854468361,1.0,9.999999747378752e-05
0.5790250658988952,0.8799999952316284,0.00017836014994827566,1.0,9.999999747378752e-05
0.5796084105968475,0.8799999952316284,0.00014743632127647288,1.0,9.999999747378752e-05
0.5803850531578064,0.8799999952316284,0.00016759692443883977,1.0,9.999999747378752e-05
0.5855533838272095,0.8799999952316284,0.0016443174536107108,1.0,9.999999747378752e-05
0.588072556257248,0.8799999952316284,0.00025185713129758367,1.0,9.999999747378752e-05
0.5821509480476379,0.8799999952316284,0.00022604658242926235,1.0,9.999999747378752e-05
0.5733963042497635,0.8799999952316284,0.0007500544268623343,1.0,9.999999747378752e-05
0.5695325046777725,0.8600000143051147,0.00018545263574196725,1.0,9.999999747378752e-05
0.5702086895704269,0.8600000143051147,0.00026510255247558234,1.0,9.999999747378752e-05
0.5708962321281433,0.8600000143051147,0.0003210686507372884,1.0,9.999999747378752e-05
0.5689591526985168,0.8600000143051147,0.0004552883197902702,1.0,9.999999747378752e-05
0.5685399949550629,0.8600000143051147,0.0001578946181325591,1.0,9.999999747378752e-05
0.573887974023819,0.8799999952316284,0.00043481307075126096,1.0,9.999999747378752e-05
0.580229651927948,0.8799999952316284,7.80289850808913e-05,1.0,9.999999747378752e-05
0.633920656144619,0.8799999952316284,0.00510585342271952,1.0,9.999999747378752e-05
0.836309266090393,0.8399999737739563,0.006645661206857767,1.0,9.999999747378752e-05
1.3280354022979737,0.800000011920929,0.00044813249151047784,1.0,9.999999747378752e-05
0.699777364730835,0.8799999952316284,0.0019275595404906198,1.0,9.999999747378752e-05
0.6182113438844681,0.8799999952316284,0.0027563395948163815,1.0,9.999999747378752e-05
0.5756449162960052,0.8799999952316284,0.0016719296501833015,1.0,9.999999747378752e-05
0.6241039514541626,0.8799999952316284,0.0009001246635307325,1.0,9.999999747378752e-05
0.6393583968281746,0.8799999952316284,0.0002917401183367474,1.0,9.999999747378752e-05
0.6067709475755692,0.8799999952316284,0.0009380939285620115,1.0,9.999999747378752e-05
0.5867418766021728,0.8799999952316284,0.00023372459727397655,1.0,9.999999747378752e-05
0.583630558848381,0.8799999952316284,0.000460808735624596,1.0,9.999999747378752e-05
0.5786827236413956,0.8799999952316284,0.00025574606534064517,1.0,9.999999747378752e-05
0.5761015802621842,0.8799999952316284,0.00016466737688460852,1.0,9.999999747378752e-05
0.5754296094179153,0.8799999952316284,0.00017765178508852842,1.0,9.999999747378752e-05
0.580927562713623,0.8799999952316284,0.00041886069666361434,1.0,9.999999747378752e-05
0.581828823685646,0.8799999952316284,0.00017526521969557507,1.0,9.999999747378752e-05
0.6439440790563822,0.8999999761581421,0.002025205362951965,1.0,9.999999747378752e-05
0.6611878950148821,0.8799999952316284,0.00025617416849854635,1.0,9.999999747378752e-05
0.6478764314204455,0.8799999952316284,0.00013287058027344756,1.0,9.999999747378752e-05
0.6210396248847246,0.8799999952316284,0.0003507534031086834,1.0,9.999999747378752e-05
0.5088909924030304,0.8799999952316284,0.0017192442417581332,1.0,9.999999747378752e-05
0.500107865035534,0.8999999761581421,0.00017070092781068524,1.0,9.999999747378752e-05
0.5092700637876988,0.8999999761581421,0.0001261543671716936,1.0,9.999999747378752e-05
0.5103656306862832,0.8999999761581421,0.00019514059167704544,1.0,9.999999747378752e-05
0.5103834554553032,0.8999999761581421,0.00025263278248530694,1.0,9.999999747378752e-05
0.5106449991464614,0.8600000143051147,0.00037307359007172637,1.0,9.999999747378752e-05
0.5128955155611038,0.8600000143051147,0.00022151893863338047,1.0,9.999999747378752e-05
0.5168860495090485,0.8600000143051147,0.00016622305374767166,1.0,9.999999747378752e-05
0.519756743311882,0.8600000143051147,0.0002576693987066392,1.0,9.999999747378752e-05
0.523581376671791,0.8600000143051147,0.0001282107925362652,1.0,9.999999747378752e-05
0.5283066362142563,0.8600000143051147,0.00011737538243323797,1.0,9.999999747378752e-05
0.5328538000583649,0.8799999952316284,8.3956782509631e-05,1.0,9.999999747378752e-05
0.5353588342666626,0.8799999952316284,0.00013754426036030054,1.0,9.999999747378752e-05
0.5339999079704285,0.8799999952316284,0.0006209701269654033,1.0,9.999999747378752e-05
0.5363864064216614,0.8799999952316284,0.00012003647480014479,1.0,9.999999747378752e-05
0.5419767558574676,0.8799999952316284,0.0006340604497381719,1.0,9.999999747378752e-05
0.560590535402298,0.8799999952316284,0.00013300183854880743,1.0,9.999999747378752e-05
0.5686756491661071,0.8799999952316284,0.00011380938085494562,1.0,9.999999747378752e-05
0.5711874783039093,0.8799999952316284,0.00010664345718396362,1.0,9.999999747378752e-05
0.5695626139640808,0.8799999952316284,0.00015001087958808058,1.0,9.999999747378752e-05
0.555371555685997,0.8799999952316284,0.0008105436976620694,1.0,9.999999747378752e-05
0.5435416340827942,0.8799999952316284,0.00019622011241153813,1.0,9.999999747378752e-05
0.5389357656240463,0.8799999952316284,0.00013764133982476778,1.0,9.999999747378752e-05
0.5375218391418457,0.8799999952316284,0.00015499170121984206,1.0,9.999999747378752e-05
0.5411526471376419,0.8799999952316284,0.00012944576592417435,1.0,9.999999747378752e-05
0.5503718018531799,0.8799999952316284,0.00021270046709105374,1.0,9.999999747378752e-05
0.5560946613550186,0.8799999952316284,0.00036818386543018277,1.0,9.999999747378752e-05
0.5557280033826828,0.8799999952316284,7.496712623833446e-05,1.0,9.999999747378752e-05
0.556046986579895,0.8799999952316284,0.00013278656551847235,1.0,9.999999747378752e-05
0.5566405594348908,0.8799999952316284,6.050607225915883e-05,1.0,9.999999747378752e-05
0.5565701246261596,0.8799999952316284,0.00011516406884766184,1.0,9.999999747378752e-05
0.555912098288536,0.8799999952316284,0.0001643875722947996,1.0,9.999999747378752e-05
0.5510479927062988,0.8799999952316284,0.0004492366209888132,1.0,9.999999747378752e-05
0.546970471739769,0.8799999952316284,0.00029469786495610605,1.0,9.999999747378752e-05
0.5463709354400634,0.8799999952316284,0.00012999901373405008,1.0,9.999999747378752e-05
0.5466316640377045,0.8799999952316284,0.00024081494339043275,1.0,9.999999747378752e-05
0.5492117285728455,0.8799999952316284,0.0001529949928226415,1.0,9.999999747378752e-05
0.5512049853801727,0.8799999952316284,0.0001162526008556597,1.0,9.999999747378752e-05
0.5510304480791092,0.8799999952316284,0.00017740139319357695,1.0,9.999999747378752e-05
0.5513704180717468,0.8799999952316284,5.752498982474208e-05,1.0,9.999999747378752e-05
0.5521798878908157,0.8799999952316284,8.136811866279458e-05,1.0,9.999999747378752e-05
0.5533817738294602,0.8799999952316284,5.459097883431241e-05,1.0,9.999999747378752e-05
0.5534703254699707,0.8799999952316284,0.00014800416852267517,1.0,9.999999747378752e-05
0.5530659079551696,0.8799999952316284,0.00010590775236778427,1.0,9.999999747378752e-05
0.5536982893943787,0.8799999952316284,6.56296308079618e-05,1.0,9.999999747378752e-05
0.5527662545442581,0.8799999952316284,0.0006040190879502916,1.0,9.999999747378752e-05
0.5543592423200607,0.8799999952316284,8.903438774723326e-05,1.0,9.999999747378752e-05
0.5551784843206405,0.8799999952316284,7.848111008570413e-05,1.0,9.999999747378752e-05
0.5566754698753357,0.8799999952316284,4.5269591282703914e-05,1.0,9.999999747378752e-05
0.5579613983631134,0.8799999952316284,0.00027192582238058096,1.0,9.999999747378752e-05
0.5534640610218048,0.8799999952316284,0.0001272598591640417,1.0,9.999999747378752e-05
0.5529427826404572,0.8799999952316284,0.0001233012741067796,1.0,9.999999747378752e-05
0.5638660788536072,0.8799999952316284,0.0005070679935670341,1.0,9.999999747378752e-05
0.5731423825025559,0.8799999952316284,0.000125068671286499,1.0,9.999999747378752e-05
0.5766764283180237,0.8799999952316284,8.173013939085649e-05,1.0,9.999999747378752e-05
0.5838672608137131,0.8799999952316284,0.0006973609990382102,1.0,9.999999747378752e-05
0.5709728300571442,0.8799999952316284,0.00023648579335713293,1.0,9.999999747378752e-05
0.5669742882251739,0.8799999952316284,0.0002593393998722604,1.0,9.999999747378752e-05
0.5648757725954056,0.8799999952316284,7.770176907797576e-05,1.0,9.999999747378752e-05
0.5639781832695008,0.8799999952316284,9.620461705708294e-05,1.0,9.999999747378752e-05
0.5587129712104797,0.8799999952316284,0.00043203320437896765,1.0,9.999999747378752e-05
0.5466288954019547,0.8600000143051147,0.00035676682855410034,1.0,9.999999747378752e-05
0.5380874305963517,0.8600000143051147,7.594227718072943e-05,1.0,9.999999747378752e-05
0.5379421561956406,0.8600000143051147,0.000165107623070071,1.0,9.999999747378752e-05
0.5453392088413238,0.8600000143051147,0.0007239011723868316,1.0,9.999999747378752e-05
0.5579224020242691,0.8799999952316284,9.238936563633615e-05,1.0,9.999999747378752e-05
0.5555456757545472,0.8600000143051147,0.0005932645808570669,1.0,9.999999747378752e-05
0.5553279995918274,0.8600000143051147,0.00020453952911339,1.0,9.999999747378752e-05
0.5560515969991684,0.8600000143051147,6.781371866964037e-05,1.0,9.999999747378752e-05
0.5560782372951507,0.8600000143051147,0.00013526890870707575,1.0,9.999999747378752e-05
0.555583444237709,0.8600000143051147,0.0002188578591812984,1.0,9.999999747378752e-05
0.5585381865501404,0.8600000143051147,0.0004199820779831498,1.0,9.999999747378752e-05
0.5609548211097717,0.8600000143051147,0.00019013349592569284,1.0,9.999999747378752e-05
0.5633863508701324,0.8600000143051147,0.0002240927536149684,1.0,9.999999747378752e-05
0.564608120918274,0.8799999952316284,3.4226955995109166e-05,1.0,9.999999747378752e-05
0.5653661578893662,0.8799999952316284,0.0005952707479082164,1.0,9.999999747378752e-05
0.5575873881578446,0.8600000143051147,8.394007272727322e-05,1.0,9.999999747378752e-05
0.5568121135234833,0.8600000143051147,0.00020229245028531296,1.0,9.999999747378752e-05
0.5586160272359848,0.8600000143051147,9.662705124355853e-05,1.0,9.999999747378752e-05
0.5604907453060151,0.8600000143051147,8.585936175222741e-05,1.0,9.999999747378752e-05
0.5637512743473053,0.8799999952316284,8.929325886128937e-05,1.0,9.999999747378752e-05
0.567516204714775,0.8799999952316284,0.00016170936078196974,1.0,9.999999747378752e-05
0.5695906043052673,0.8799999952316284,0.00012180553776488522,1.0,9.999999747378752e-05
0.5697476267814636,0.8799999952316284,0.00011465509942354402,1.0,9.999999747378752e-05
0.5727241277694702,0.8799999952316284,0.00019752807720578857,1.0,9.999999747378752e-05
0.5787238746881485,0.8799999952316284,6.198345718075871e-05,1.0,9.999999747378752e-05
0.5810619324445725,0.8799999952316284,8.853521630953764e-05,1.0,9.999999747378752e-05
0.5818064391613007,0.8799999952316284,0.00021967744269204558,1.0,9.999999747378752e-05
0.5742755085229874,0.8799999952316284,0.00024561747941334036,1.0,9.999999747378752e-05
0.5669827997684479,0.8799999952316284,0.00022157526354931177,1.0,9.999999747378752e-05
0.5629693984985351,0.8799999952316284,0.0003012132770891185,1.0,9.999999747378752e-05
0.5648698329925537,0.8799999952316284,9.815259672905086e-05,1.0,9.999999747378752e-05
0.5678555607795716,0.8799999952316284,9.289985482610063e-05,1.0,9.999999747378752e-05
0.5713138699531555,0.8799999952316284,0.0001407429634127766,1.0,9.999999747378752e-05
0.5714125812053681,0.8799999952316284,0.00013729171009799757,1.0,9.999999747378752e-05
0.5708421140909195,0.8799999952316284,6.673098723695148e-05,1.0,9.999999747378752e-05
0.5570307344198226,0.8600000143051147,0.0013703903374334913,1.0,9.999999747378752e-05
0.569053766131401,0.8799999952316284,0.00014568050264642806,1.0,9.999999747378752e-05
0.5796983361244201,0.8799999952316284,0.00017343290273856836,1.0,9.999999747378752e-05
0.57784583568573,0.8799999952316284,0.0006605902101910032,1.0,9.999999747378752e-05
0.5817810356616974,0.8799999952316284,7.841989163352992e-05,1.0,9.999999747378752e-05
0.5839475154876709,0.8799999952316284,0.00017828059417297483,1.0,9.999999747378752e-05
0.5843724429607391,0.8799999952316284,0.00011689950279105687,1.0,9.999999747378752e-05
0.5840896993875504,0.8799999952316284,6.890182767165243e-05,1.0,9.999999747378752e-05
0.5840065032243729,0.8799999952316284,0.0001254178208000667,1.0,9.999999747378752e-05
0.5811362564563751,0.8799999952316284,0.0002684657902136678,1.0,9.999999747378752e-05
0.5878692209720612,0.8799999952316284,0.00025148429685941667,1.0,9.999999747378752e-05
0.5926103860139846,0.8799999952316284,0.00012172811238997383,1.0,9.999999747378752e-05
0.5862690657377243,0.8799999952316284,0.00035194708971175714,1.0,9.999999747378752e-05
0.5708625197410584,0.8799999952316284,0.0005396624905188218,1.0,9.999999747378752e-05
0.5563492134213448,0.8600000143051147,0.0004400774885652936,1.0,9.999999747378752e-05
0.5553611189126968,0.8600000143051147,0.00020194622447888833,1.0,9.999999747378752e-05
0.5551685824990272,0.8600000143051147,0.00015229853661367088,1.0,9.999999747378752e-05
0.5943087995052337,0.8799999952316284,0.01296208563298933,1.0,9.999999747378752e-05
0.8472496505826712,0.8999999761581421,0.04835910710698954,0.9900000095367432,9.999999747378752e-05
1.3538688540458679,0.8600000143051147,0.010604087249521398,1.0,9.999999747378752e-05
0.4785710334777832,0.8600000143051147,0.005657725896162447,1.0,9.999999747378752e-05
0.45993206165730954,0.8799999952316284,0.002272146171890199,1.0,9.999999747378752e-05
0.4622777387499809,0.8399999737739563,0.002319915789121296,1.0,9.999999747378752e-05
0.4864746928215027,0.8399999737739563,0.0016059206747740973,1.0,9.999999747378752e-05
0.5249400585889816,0.8600000143051147,0.000799112586537376,1.0,9.999999747378752e-05
0.5640684932470321,0.8600000143051147,0.001445143354794709,1.0,9.999999747378752e-05
0.5802323177456856,0.8799999952316284,0.0007393977837637066,1.0,9.999999747378752e-05
1.151129457075149,0.8199999928474426,0.04469593381218147,0.9800000190734863,9.999999747378752e-05
2.0636582732200623,0.7400000095367432,0.007242244956432842,1.0,9.999999747378752e-05
1.4069255948066712,0.7799999713897705,0.012257062247226714,1.0,9.999999747378752e-05
1.0090616196393967,0.800000011920929,0.0023466923099476843,1.0,9.999999747378752e-05
0.7269340969622136,0.8199999928474426,0.001198869121435564,1.0,9.999999747378752e-05
0.5924326322972775,0.8600000143051147,0.0010605282695905771,1.0,9.999999747378752e-05
0.5275805389508605,0.8999999761581421,0.0014501107096293708,1.0,9.999999747378752e-05
0.5044274002313613,0.8999999761581421,0.0005635213587083854,1.0,9.999999747378752e-05
0.49528165757656095,0.8799999952316284,0.004171360369946342,1.0,9.999999747378752e-05
0.5007736891508102,0.8999999761581421,0.001373414813861018,1.0,9.999999747378752e-05
0.5085631489753724,0.8799999952316284,0.0014324233910883778,1.0,9.999999747378752e-05
0.5187941133975983,0.8799999952316284,0.0008575924475735519,1.0,9.999999747378752e-05
0.5375855982303619,0.8799999952316284,0.0030376732160220855,1.0,9.999999747378752e-05
0.5475934639573097,0.8600000143051147,0.0007545117092377041,1.0,9.999999747378752e-05
0.5528911143541336,0.8799999952316284,0.00047986052559281236,1.0,9.999999747378752e-05
0.5545754685997963,0.8799999952316284,0.00028331756038824096,1.0,9.999999747378752e-05
0.5523950353264808,0.8799999952316284,0.0015549170864687766,1.0,9.999999747378752e-05
0.5571151986718178,0.8799999952316284,0.0007769266390823759,1.0,9.999999747378752e-05
0.5563542798161507,0.8799999952316284,0.0004962158451235155,1.0,9.999999747378752e-05
0.554652689397335,0.8799999952316284,0.00039706620591459794,1.0,9.999999747378752e-05
0.5535560205578804,0.8799999952316284,0.0004358099111414049,1.0,9.999999747378752e-05
0.5561381787061691,0.8799999952316284,0.001279057668580208,1.0,9.999999747378752e-05
0.5614442929625512,0.8799999952316284,0.0006250293172342936,1.0,9.999999747378752e-05
0.5592797607183456,0.8799999952316284,0.0006030543852830305,1.0,9.999999747378752e-05
0.5600305393338203,0.8799999952316284,0.00028752691614499783,1.0,9.999999747378752e-05
0.5593728020787239,0.8799999952316284,0.0006925509274879005,1.0,9.999999747378752e-05
0.5624473497271538,0.8799999952316284,0.0020533590992272365,1.0,9.999999747378752e-05
0.5633028119802475,0.8799999952316284,0.000771077645731566,1.0,9.999999747378752e-05
0.5365908056497574,0.8600000143051147,0.0045370737894700145,1.0,9.999999747378752e-05
0.5133428335189819,0.8799999952316284,0.0007944525888888166,1.0,9.999999747378752e-05
0.510288479924202,0.8799999952316284,0.0004618485385435633,1.0,9.999999747378752e-05
0.516714558005333,0.8799999952316284,0.0005928237122134305,1.0,9.999999747378752e-05
0.5254694163799286,0.8799999952316284,0.0011540111463546054,1.0,9.999999747378752e-05
0.5315686196088791,0.8799999952316284,0.000292981979509932,1.0,9.999999747378752e-05
0.5425272464752198,0.8600000143051147,0.0044031327750417406,1.0,9.999999747378752e-05
0.5677567690610885,0.8600000143051147,0.00040030993659456726,1.0,9.999999747378752e-05
0.5653539285063743,0.8799999952316284,0.0017764269015970058,1.0,9.999999747378752e-05
0.5578634575009346,0.8600000143051147,0.0019245685458372463,1.0,9.999999747378752e-05
0.5527537494897843,0.8600000143051147,0.0004931292765832041,1.0,9.999999747378752e-05
0.5496434360742569,0.8600000143051147,0.0004880131518802955,1.0,9.999999747378752e-05
0.5492358148097992,0.8600000143051147,0.0005428964203019859,1.0,9.999999747378752e-05
0.5499808847904205,0.8600000143051147,0.00012751727626891807,1.0,9.999999747378752e-05
0.5504300415515899,0.8600000143051147,0.0004471570791793056,1.0,9.999999747378752e-05
0.5493338435888291,0.8600000143051147,0.0005776734768005553,1.0,9.999999747378752e-05
0.5500509887933731,0.8600000143051147,0.00026964154321831304,1.0,9.999999747378752e-05
0.5501160562038422,0.8600000143051147,0.00039127413401729427,1.0,9.999999747378752e-05
0.5502933949232102,0.8600000143051147,0.0004305066369852284,1.0,9.999999747378752e-05
0.5532166600227356,0.8600000143051147,0.00043231623149040386,1.0,9.999999747378752e-05
0.5537491917610169,0.8600000143051147,0.0008265059517725603,1.0,9.999999747378752e-05
0.5532508313655853,0.8600000143051147,0.00021717868476116563,1.0,9.999999747378752e-05
0.5529081910848618,0.8600000143051147,0.0003672022929094965,1.0,9.999999747378752e-05
0.5573465168476105,0.8799999952316284,0.0005831804659464978,1.0,9.999999747378752e-05
0.5584309101104736,0.8799999952316284,0.0002745232985034818,1.0,9.999999747378752e-05
0.5589208722114563,0.8799999952316284,0.0003058005437196698,1.0,9.999999747378752e-05
0.5587666183710098,0.8799999952316284,0.00032079308803076854,1.0,9.999999747378752e-05
0.557472962141037,0.8799999952316284,0.0007096935387380654,1.0,9.999999747378752e-05
0.5550537526607513,0.8600000143051147,0.00014021927963767667,1.0,9.999999747378752e-05
0.5532802671194077,0.8600000143051147,0.000504654441101593,1.0,9.999999747378752e-05
0.5528238117694855,0.8600000143051147,0.00010309933459211607,1.0,9.999999747378752e-05
0.5533385068178177,0.8600000143051147,0.00022161416582093806,1.0,9.999999747378752e-05
0.5522469878196716,0.8600000143051147,0.0010300983292836463,1.0,9.999999747378752e-05
0.5612233936786651,0.8799999952316284,0.00015717513642812264,1.0,9.999999747378752e-05
0.5637848764657974,0.8799999952316284,0.00020703485006379196,1.0,9.999999747378752e-05
0.5640014797449112,0.8799999952316284,0.00029154815201763994,1.0,9.999999747378752e-05
0.5632410913705825,0.8799999952316284,0.000345573436061386,1.0,9.999999747378752e-05
0.5624289184808731,0.8799999952316284,0.00021433665251606725,1.0,9.999999747378752e-05
0.5609479457139969,0.8799999952316284,0.0002070750022539869,1.0,9.999999747378752e-05
0.5602806270122528,0.8799999952316284,0.00012430566257535248,1.0,9.999999747378752e-05
0.5599460363388061,0.8799999952316284,0.00013619422552437754,1.0,9.999999747378752e-05
0.55948546230793,0.8799999952316284,0.0001371734277199721,1.0,9.999999747378752e-05
0.5587396264076233,0.8799999952316284,0.0004478222945181187,1.0,9.999999747378752e-05
0.5595042854547501,0.8799999952316284,0.0003808468725765124,1.0,9.999999747378752e-05
0.5600273311138153,0.8799999952316284,0.00020862855708401185,1.0,9.999999747378752e-05
0.5598902434110642,0.8799999952316284,0.00016047564640757627,1.0,9.999999747378752e-05
0.5580800831317901,0.8799999952316284,0.000332303661343758,1.0,9.999999747378752e-05
0.5573432266712188,0.8799999952316284,0.0001456905418308452,1.0,9.999999747378752e-05
0.5566118240356446,0.8799999952316284,0.0003196586068952456,1.0,9.999999747378752e-05
0.5563866496086121,0.8799999952316284,0.00016199192250496708,1.0,9.999999747378752e-05
0.5546318113803863,0.8799999952316284,0.00045005071679042884,1.0,9.999999747378752e-05
0.5544766455888748,0.8799999952316284,0.0002763304400104971,1.0,9.999999747378752e-05
0.5529475808143616,0.8600000143051147,0.00031532441898889373,1.0,9.999999747378752e-05
0.5492002338171005,0.8600000143051147,0.00044599279199246665,1.0,9.999999747378752e-05
0.5466022461652755,0.8600000143051147,0.0005197289508032555,1.0,9.999999747378752e-05
0.5482154071331025,0.8600000143051147,0.00023339155577559723,1.0,9.999999747378752e-05
0.5486646085977555,0.8600000143051147,0.00014007143399794587,1.0,9.999999747378752e-05
0.5469041526317596,0.8600000143051147,0.0007446716921549523,1.0,9.999999747378752e-05
0.5422945529222488,0.8600000143051147,0.00041840823705570075,1.0,9.999999747378752e-05
0.5412398666143418,0.8600000143051147,0.00013725006847380427,1.0,9.999999747378752e-05
0.5414126634597778,0.8600000143051147,6.603760393772973e-05,1.0,9.999999747378752e-05
0.5416286289691925,0.8600000143051147,0.00011162720511492807,1.0,9.999999747378752e-05
0.5415690809488296,0.8600000143051147,7.034697246126598e-05,1.0,9.999999747378752e-05
0.5429662138223648,0.8600000143051147,0.00015864067700022133,1.0,9.999999747378752e-05
0.5436253190040589,0.8600000143051147,8.09112621936947e-05,1.0,9.999999747378752e-05
0.5437977194786072,0.8600000143051147,0.00015282172316801734,1.0,9.999999747378752e-05
0.5441882729530334,0.8600000143051147,0.00010772020468721166,1.0,9.999999747378752e-05
0.5446593165397644,0.8600000143051147,0.00020714708098239497,1.0,9.999999747378752e-05
0.5462902545928955,0.8600000143051147,0.00023847205593483523,1.0,9.999999747378752e-05
0.5468727022409439,0.8600000143051147,0.0006241885246708989,1.0,9.999999747378752e-05
0.5474876970052719,0.8600000143051147,0.00014807406987529247,1.0,9.999999747378752e-05
0.5476656973361969,0.8600000143051147,0.0001449925798624463,1.0,9.999999747378752e-05
0.547665023803711,0.8600000143051147,0.0001581738852109993,1.0,9.999999747378752e-05
0.5485087126493454,0.8600000143051147,0.0005507002666490735,1.0,9.999999747378752e-05
0.548201996088028,0.8600000143051147,0.00034509326633269666,1.0,9.999999747378752e-05
0.547258484363556,0.8600000143051147,0.0001403318410666543,1.0,9.999999747378752e-05
0.5505763620138169,0.8600000143051147,0.0004950178990839049,1.0,9.999999747378752e-05
0.5528160840272903,0.8600000143051147,0.0004154882679358707,1.0,9.999999747378752e-05
0.5513479322195053,0.8600000143051147,0.0003199783990567084,1.0,9.999999747378752e-05
0.5507856577634811,0.8600000143051147,0.00010021626403613481,1.0,9.999999747378752e-05
0.5512753158807755,0.8600000143051147,0.00013506421819329262,1.0,9.999999747378752e-05
0.5521245956420898,0.8600000143051147,0.0002560505850851769,1.0,9.999999747378752e-05
0.5525363743305206,0.8600000143051147,0.00018545511229604018,1.0,9.999999747378752e-05
0.5520649820566177,0.8600000143051147,0.000124406586837722,1.0,9.999999747378752e-05
0.5515080153942108,0.8600000143051147,0.0002370013895415468,1.0,9.999999747378752e-05
0.5512268722057343,0.8600000143051147,0.00012127521722504753,1.0,9.999999747378752e-05
0.5507751882076264,0.8600000143051147,0.0001792538847439573,1.0,9.999999747378752e-05
0.5527335077524185,0.8600000143051147,0.0003916751949873287,1.0,9.999999747378752e-05
0.5529146730899811,0.8600000143051147,7.022989448159933e-05,1.0,9.999999747378752e-05
0.553890836238861,0.8600000143051147,0.00015692650558776222,1.0,9.999999747378752e-05
0.5535871326923371,0.8600000143051147,0.00021568150405073538,1.0,9.999999747378752e-05
0.5524431437253952,0.8600000143051147,0.0008005955094631644,1.0,9.999999747378752e-05
0.5501967906951905,0.8600000143051147,0.00016394257254432888,1.0,9.999999747378752e-05
0.5469478249549866,0.8600000143051147,0.001042795540888619,1.0,9.999999747378752e-05
0.5456503659486771,0.8600000143051147,0.0005821677556014038,1.0,9.999999747378752e-05
0.5504049003124237,0.8799999952316284,0.000102306517692341,1.0,9.999999747378752e-05
0.5531688332557678,0.8799999952316284,0.00019141109914926345,1.0,9.999999747378752e-05
0.5539093762636185,0.8799999952316284,0.00013404422879830235,1.0,9.999999747378752e-05
0.5544674158096313,0.8799999952316284,0.00010136613382201176,1.0,9.999999747378752e-05
0.5547281622886657,0.8799999952316284,6.638273098360514e-05,1.0,9.999999747378752e-05
0.5538311719894409,0.8799999952316284,0.00014981566273490897,1.0,9.999999747378752e-05
0.5545286715030671,0.8799999952316284,0.00019394197424844607,1.0,9.999999747378752e-05
0.5507863849401474,0.8799999952316284,0.0005240684589807642,1.0,9.999999747378752e-05
0.5487452924251557,0.8799999952316284,0.000512484523733292,1.0,9.999999747378752e-05
0.5475596517324448,0.8799999952316284,0.00012230277243361343,1.0,9.999999747378752e-05
0.5478642910718918,0.8799999952316284,0.0001266434092030977,1.0,9.999999747378752e-05
0.5456601321697235,0.8600000143051147,0.0007678537889660219,1.0,9.999999747378752e-05
0.5453920364379883,0.8600000143051147,0.0001563365041874931,1.0,9.999999747378752e-05
0.5469619035720825,0.8600000143051147,0.00023614210567757254,1.0,9.999999747378752e-05
0.5479864031076431,0.8600000143051147,0.0004175695568847004,1.0,9.999999747378752e-05
0.5470397859811783,0.8600000143051147,0.00041229982998629565,1.0,9.999999747378752e-05
0.5466971904039383,0.8600000143051147,0.00013920905566919828,1.0,9.999999747378752e-05
0.5472646176815033,0.8600000143051147,6.663872445642483e-05,1.0,9.999999747378752e-05
0.5483138054609299,0.8600000143051147,0.0003676242616165837,1.0,9.999999747378752e-05
0.5499919921159744,0.8600000143051147,0.00018907131498053787,1.0,9.999999747378752e-05
0.5512537240982056,0.8600000143051147,0.00017057806780940155,1.0,9.999999747378752e-05
0.5528147369623184,0.8600000143051147,0.00017627456418267684,1.0,9.999999747378752e-05
0.5534311324357987,0.8600000143051147,5.923894677835051e-05,1.0,9.999999747378752e-05
0.554444420337677,0.8600000143051147,0.0004019973946924438,1.0,9.999999747378752e-05
0.554518049955368,0.8600000143051147,0.00010282869097864023,1.0,9.999999747378752e-05
0.5551091700792312,0.8600000143051147,0.00011781046760006575,1.0,9.999999747378752e-05
0.5555712908506394,0.8600000143051147,4.6278237823571545e-05,1.0,9.999999747378752e-05
0.5554477542638778,0.8600000143051147,0.00011985529672529083,1.0,9.999999747378752e-05
0.5554586619138717,0.8600000143051147,0.00010071938122564461,1.0,9.999999747378752e-05
0.55662582218647,0.8600000143051147,0.0002781994566248613,1.0,9.999999747378752e-05
0.5583428740501404,0.8799999952316284,0.00024806043657008556,1.0,9.999999747378752e-05
0.5601426482200622,0.8799999952316284,0.00014722841906404937,1.0,9.999999747378752e-05
0.561377739906311,0.8799999952316284,7.761414744891226e-05,1.0,9.999999747378752e-05
0.5627886831760407,0.8799999952316284,9.162712394754635e-05,1.0,9.999999747378752e-05
0.5631029576063156,0.8799999952316284,0.0001222926281116088,1.0,9.999999747378752e-05
0.563866475224495,0.8799999952316284,0.00028747609048878074,1.0,9.999999747378752e-05
0.5653822124004364,0.8799999952316284,0.00025001529611472505,1.0,9.999999747378752e-05
0.5643096446990967,0.8799999952316284,0.00010652914079400944,1.0,9.999999747378752e-05
0.5648008942604065,0.8799999952316284,7.898419025877956e-05,1.0,9.999999747378752e-05
0.5663844138383866,0.8799999952316284,0.00016427058762928936,1.0,9.999999747378752e-05
0.5614668041467666,0.8600000143051147,0.0006035145725036273,1.0,9.999999747378752e-05
0.5622076362371444,0.8600000143051147,7.021125657047378e-05,1.0,9.999999747378752e-05
0.5636052906513214,0.8600000143051147,0.00030912062320567204,1.0,9.999999747378752e-05
0.5631064772605896,0.8600000143051147,0.00014337951797642744,1.0,9.999999747378752e-05
0.5614230334758759,0.8600000143051147,0.00028381808788253694,1.0,9.999999747378752e-05
0.5579123467206955,0.8600000143051147,0.0004689883615355939,1.0,9.999999747378752e-05
0.5548861682415008,0.8600000143051147,0.00019916568307962735,1.0,9.999999747378752e-05
0.5536283552646637,0.8600000143051147,0.00038417998985096347,1.0,9.999999747378752e-05
0.5536386251449585,0.8600000143051147,0.000305678659969999,1.0,9.999999747378752e-05
0.5538845211267471,0.8600000143051147,0.00025791603711695644,1.0,9.999999747378752e-05
0.5539867401123046,0.8600000143051147,0.00037452538936122437,1.0,9.999999747378752e-05
0.5551622748374939,0.8600000143051147,0.0003468502096438897,1.0,9.999999747378752e-05
0.5556762486696243,0.8600000143051147,0.00010598516219033627,1.0,9.999999747378752e-05
0.5574951082468033,0.8600000143051147,0.00014462310373346553,1.0,9.999999747378752e-05
0.5594663709402085,0.8600000143051147,4.7544452536385505e-05,1.0,9.999999747378752e-05
0.5608836799860001,0.8799999952316284,9.144910782197258e-05,1.0,9.999999747378752e-05
0.5631527721881866,0.8799999952316284,8.190382095563109e-05,1.0,9.999999747378752e-05
0.5643928706645965,0.8799999952316284,0.00010250448822262115,1.0,9.999999747378752e-05
0.5647636175155639,0.8799999952316284,0.00022976421464591113,1.0,9.999999747378752e-05
0.5635705471038819,0.8799999952316284,0.00026215503912681016,1.0,9.999999747378752e-05
0.5627665221691132,0.8600000143051147,0.0001464693913476367,1.0,9.999999747378752e-05
0.5638132274150849,0.8799999952316284,0.00012462412969398428,1.0,9.999999747378752e-05
0.5645708501338959,0.8799999952316284,7.896690422057873e-05,1.0,9.999999747378752e-05
0.5650302320718765,0.8799999952316284,0.00022744522666471312,1.0,9.999999747378752e-05
0.566655370593071,0.8799999952316284,8.349779509444488e-05,1.0,9.999999747378752e-05
0.5684917628765106,0.8799999952316284,0.0004580607125717506,1.0,9.999999747378752e-05
0.5688931286334992,0.8600000143051147,0.00013846363781340188,1.0,9.999999747378752e-05
0.568762332201004,0.8600000143051147,9.082180567929755e-05,1.0,9.999999747378752e-05
0.5683876246213913,0.8600000143051147,0.00022302728857539477,1.0,9.999999747378752e-05
0.5704422980546952,0.8600000143051147,0.00021195627750785205,1.0,9.999999747378752e-05
0.572921273112297,0.8600000143051147,8.065436895776656e-05,1.0,9.999999747378752e-05
0.5734197080135346,0.8600000143051147,0.00020858388852502686,1.0,9.999999747378752e-05
0.5742692977190018,0.8600000143051147,0.00016199504934775178,1.0,9.999999747378752e-05
0.5742009937763214,0.8600000143051147,0.00015443452975887338,1.0,9.999999747378752e-05
0.5773095846176147,0.8600000143051147,0.00036632188166549893,1.0,9.999999747378752e-05
0.5789516270160675,0.8600000143051147,0.00017155379255200386,1.0,9.999999747378752e-05
0.5807301670312881,0.8600000143051147,0.0002830074648045411,1.0,9.999999747378752e-05
0.5773131996393204,0.8600000143051147,0.0005319695059370133,1.0,9.999999747378752e-05
0.5742281168699265,0.8600000143051147,3.929899512513657e-05,1.0,9.999999747378752e-05
0.5735976934432984,0.8600000143051147,9.651516975281993e-05,1.0,9.999999747378752e-05
0.5740168452262878,0.8600000143051147,0.00030256253194238525,1.0,9.999999747378752e-05
0.5690449446439743,0.8600000143051147,0.0006433240283513442,1.0,9.999999747378752e-05
0.5696402668952942,0.8600000143051147,0.00016496264570378116,1.0,9.999999747378752e-05
0.5719025015830994,0.8600000143051147,0.00014299819085863418,1.0,9.999999747378752e-05
0.5744340032339096,0.8600000143051147,0.0001992018254895811,1.0,9.999999747378752e-05
0.5768009305000306,0.8600000143051147,0.0002005355854635127,1.0,9.999999747378752e-05
0.578366631269455,0.8600000143051147,0.0004741219848256151,1.0,9.999999747378752e-05
0.6606711953878402,0.8600000143051147,0.0030610868829171523,1.0,9.999999747378752e-05
0.6731652036309242,0.8600000143051147,0.0016593594221376406,1.0,9.999999747378752e-05
0.6048897713422775,0.8799999952316284,6.684099289486767e-05,1.0,9.999999747378752e-05
0.5801856011152268,0.8799999952316284,0.0003310786960355472,1.0,9.999999747378752e-05
0.5693174719810485,0.8799999952316284,0.00023645241853955667,1.0,9.999999747378752e-05
0.5602644145488739,0.8799999952316284,0.0003620438138568716,1.0,9.999999747378752e-05
0.5534932851791382,0.8799999952316284,0.00027315915758663323,1.0,9.999999747378752e-05
0.5506386399269104,0.8799999952316284,9.542612588120392e-05,1.0,9.999999747378752e-05
0.5441983580589295,0.8799999952316284,0.00048813964876899264,1.0,9.999999747378752e-05
0.5394864976406097,0.8600000143051147,0.00011277336525381543,1.0,9.999999747378752e-05
0.5397458285093307,0.8600000143051147,0.0001565335032864823,1.0,9.999999747378752e-05
0.5408919543027878,0.8600000143051147,6.538493862535688e-05,1.0,9.999999747378752e-05
0.5421152532100677,0.8600000143051147,7.429847264575073e-05,1.0,9.999999747378752e-05
0.5464971125125885,0.8600000143051147,0.00020147197046753717,1.0,9.999999747378752e-05
0.550823786854744,0.8600000143051147,0.00017067165281332565,1.0,9.999999747378752e-05
0.5533405423164368,0.8600000143051147,0.0001807630014809547,1.0,9.999999747378752e-05
0.5543457627296448,0.8600000143051147,0.00010156846747122472,1.0,9.999999747378752e-05
0.554321151971817,0.8600000143051147,5.4566712515224934e-05,1.0,9.999999747378752e-05
0.5524128139019012,0.8600000143051147,0.000541833914394374,1.0,9.999999747378752e-05
0.5553174570202828,0.8600000143051147,0.00019670200563268737,1.0,9.999999747378752e-05
0.5565150931477547,0.8600000143051147,4.862098012381466e-05,1.0,9.999999747378752e-05
0.5599847733974457,0.8600000143051147,0.0001942515005794121,1.0,9.999999747378752e-05
0.5615963011980056,0.8600000143051147,0.00014624039658883703,1.0,9.999999747378752e-05
0.5622276782989502,0.8600000143051147,0.00012076592593075474,1.0,9.999999747378752e-05
0.5624133229255677,0.8600000143051147,0.00011704676062436192,1.0,9.999999747378752e-05
0.5620797067880631,0.8600000143051147,5.520757758858963e-05,1.0,9.999999747378752e-05
0.5625259459018708,0.8600000143051147,6.298609496298013e-05,1.0,9.999999747378752e-05
0.5645067453384399,0.8600000143051147,0.00032417961065220877,1.0,9.999999747378752e-05
0.5662959516048431,0.8600000143051147,8.262800156444428e-05,1.0,9.999999747378752e-05
0.5672835141420365,0.8799999952316284,9.492120589129626e-05,1.0,9.999999747378752e-05
0.5686593234539032,0.8799999952316284,9.873099634205573e-05,1.0,9.999999747378752e-05
0.5699471175670624,0.8799999952316284,9.422717484994792e-05,1.0,9.999999747378752e-05
0.5693854987621307,0.8799999952316284,0.00010218903244094691,1.0,9.999999747378752e-05
0.569613516330719,0.8799999952316284,7.276686601471738e-05,1.0,9.999999747378752e-05
0.5680530488491058,0.8799999952316284,0.00018702161769397209,1.0,9.999999747378752e-05
0.5672123730182648,0.8799999952316284,0.00010639210622684914,1.0,9.999999747378752e-05
0.5679447412490845,0.8799999952316284,8.987294354483311e-05,1.0,9.999999747378752e-05
0.5689172565937042,0.8799999952316284,0.00013140858009137447,1.0,9.999999747378752e-05
0.5695802211761475,0.8799999952316284,0.00011768319682232686,1.0,9.999999747378752e-05
0.5700927376747131,0.8799999952316284,0.00020324151646491372,1.0,9.999999747378752e-05
0.569477453827858,0.8799999952316284,6.898212050145957e-05,1.0,9.999999747378752e-05
0.5633304953575134,0.8799999952316284,0.0008240907171057188,1.0,9.999999747378752e-05
0.5639282494783402,0.8799999952316284,9.547895515424898e-05,1.0,9.999999747378752e-05
0.5640571296215058,0.8799999952316284,4.943221092617023e-05,1.0,9.999999747378752e-05
0.5654183983802795,0.8799999952316284,9.734216964716325e-05,1.0,9.999999747378752e-05
0.5636768698692322,0.8799999952316284,9.760290349731804e-05,1.0,9.999999747378752e-05
0.5596412271261215,0.8799999952316284,0.00013790079301543302,1.0,9.999999747378752e-05
0.5577929943799973,0.8799999952316284,8.38571198983118e-05,1.0,9.999999747378752e-05
0.5575463175773621,0.8799999952316284,0.00010107501439051702,1.0,9.999999747378752e-05
0.5577713400125504,0.8799999952316284,5.450276694318745e-05,1.0,9.999999747378752e-05
0.5592050403356552,0.8799999952316284,0.0001281067581658135,1.0,9.999999747378752e-05
0.5608405411243439,0.8799999952316284,0.0003186163572536316,1.0,9.999999747378752e-05
0.5624010980129241,0.8600000143051147,0.00011175035670021315,1.0,9.999999747378752e-05
0.5638528645038605,0.8600000143051147,6.580662457054132e-05,1.0,9.999999747378752e-05
0.568072909116745,0.8600000143051147,0.00017402452276655823,1.0,9.999999747378752e-05
0.5699622005224227,0.8600000143051147,8.302624974021455e-05,1.0,9.999999747378752e-05
0.5712737321853638,0.8600000143051147,6.914065097589628e-05,1.0,9.999999747378752e-05
0.5730387896299363,0.8600000143051147,8.194891252060188e-05,1.0,9.999999747378752e-05
0.5733574211597443,0.8600000143051147,0.0003868933837111399,1.0,9.999999747378752e-05
0.5783799976110459,0.8600000143051147,5.627164637189708e-05,1.0,9.999999747378752e-05
0.5805693000555039,0.8600000143051147,0.00021997297944835735,1.0,9.999999747378752e-05
0.5816375732421875,0.8600000143051147,0.00015991769641914287,1.0,9.999999747378752e-05
0.5815649271011353,0.8600000143051147,0.00032543158258704354,1.0,9.999999747378752e-05
0.5808678790926933,0.8600000143051147,0.00010532768415032479,1.0,9.999999747378752e-05
0.5804649889469147,0.8600000143051147,7.550521768280305e-05,1.0,9.999999747378752e-05
0.579685777425766,0.8600000143051147,8.975677246780833e-05,1.0,9.999999747378752e-05
0.579235652089119,0.8600000143051147,0.00022338640028465306,1.0,9.999999747378752e-05
0.5796096831560135,0.8600000143051147,0.0001350087462924421,1.0,9.999999747378752e-05
0.5804975152015686,0.8600000143051147,0.00011465620332273829,1.0,9.999999747378752e-05
0.5813878536224365,0.8600000143051147,0.0005324401403413503,1.0,9.999999747378752e-05
0.5826160371303558,0.8600000143051147,0.00010442490238347091,1.0,9.999999747378752e-05
0.5821578800678253,0.8600000143051147,0.00013152458514014141,1.0,9.999999747378752e-05
0.5907846093177795,0.8600000143051147,0.0003147098273984739,1.0,9.999999747378752e-05
0.5960887044668197,0.8600000143051147,0.00011602472359300009,1.0,9.999999747378752e-05
0.598586842417717,0.8600000143051147,7.557704302598722e-05,1.0,9.999999747378752e-05
0.598974734544754,0.8600000143051147,0.00012002693492831895,1.0,9.999999747378752e-05
0.6000939309597015,0.8799999952316284,0.00013411754589469637,1.0,9.999999747378752e-05
0.601519975066185,0.8799999952316284,0.00010937416955130175,1.0,9.999999747378752e-05
0.6017949163913727,0.8799999952316284,8.079012604866875e-05,1.0,9.999999747378752e-05
0.6075410366058349,0.8799999952316284,0.001117950667776313,1.0,9.999999747378752e-05
0.6171028256416321,0.8799999952316284,0.00010142970941160457,1.0,9.999999747378752e-05
0.6046123653650284,0.8600000143051147,0.0004208144926451496,1.0,9.999999747378752e-05
0.5997752159833908,0.8600000143051147,0.00011872723043779843,1.0,9.999999747378752e-05
0.5961485892534256,0.8600000143051147,0.00018631325710884993,1.0,9.999999747378752e-05
0.5947644799947739,0.8600000143051147,9.457967116759392e-05,1.0,9.999999747378752e-05
0.5941883534193039,0.8600000143051147,7.641649935976602e-05,1.0,9.999999747378752e-05
