val_loss,val_accuracy,loss,accuracy,lr
0.7113178491592407,0.3400000035762787,0.5432462394237518,0.7699999809265137,0.0010000000474974513
0.6804654717445373,0.47999998927116394,0.4346275061368942,0.7599999904632568,0.0010000000474974513
0.7147739410400391,0.3799999952316284,0.36719086170196535,0.8700000047683716,0.0010000000474974513
0.8436432480812073,0.3799999952316284,0.30704613626003263,0.8799999952316284,0.0010000000474974513
0.992647922039032,0.3799999952316284,0.3033213928341866,0.8700000047683716,0.0010000000474974513
1.1502182960510254,0.3799999952316284,0.25056482702493665,0.8799999952316284,0.0010000000474974513
1.5679452419281006,0.3799999952316284,0.29501983150839806,0.8700000047683716,0.0010000000474974513
1.851332426071167,0.3799999952316284,0.24206049293279647,0.9100000262260437,0.0010000000474974513
2.0799745321273804,0.3799999952316284,0.2885353431105614,0.8700000047683716,0.0010000000474974513
2.1745101690292357,0.3799999952316284,0.2771716356277466,0.8899999856948853,0.0010000000474974513
2.336971068382263,0.3799999952316284,0.21854671984910964,0.9300000071525574,0.0010000000474974513
2.4567381143569946,0.3799999952316284,0.21399687454104424,0.9300000071525574,0.0010000000474974513
2.9039626359939574,0.3799999952316284,0.26166570112109183,0.9100000262260437,0.0010000000474974513
2.4342074632644652,0.3799999952316284,0.21023976057767868,0.9100000262260437,0.0010000000474974513
2.8414016723632813,0.3799999952316284,0.20514582097530365,0.9200000166893005,0.0010000000474974513
2.92289080619812,0.3799999952316284,0.20307594090700148,0.949999988079071,0.0010000000474974513
3.014923095703125,0.3799999952316284,0.17098261415958405,0.949999988079071,0.0010000000474974513
3.3248575210571287,0.3799999952316284,0.17155333533883094,0.9300000071525574,0.0010000000474974513
2.6564786434173584,0.3799999952316284,0.1672989707440138,0.9399999976158142,0.0010000000474974513
3.0442080020904543,0.3799999952316284,0.16315384712070227,0.9399999976158142,0.0010000000474974513
3.2406095027923585,0.3799999952316284,0.2087763361632824,0.9300000071525574,0.0010000000474974513
2.887539196014404,0.3799999952316284,0.19070920422673227,0.9300000071525574,0.0010000000474974513
2.3580888509750366,0.3799999952316284,0.18836562298238277,0.9399999976158142,0.0010000000474974513
2.408916139602661,0.3799999952316284,0.16569535359740256,0.9300000071525574,0.0010000000474974513
2.609209942817688,0.3799999952316284,0.13548680879175662,0.949999988079071,0.0010000000474974513
2.2993138313293455,0.3799999952316284,0.13209859188646078,0.949999988079071,0.0010000000474974513
1.6809474229812622,0.3799999952316284,0.11992661003023386,0.9700000286102295,0.0010000000474974513
1.7895883798599244,0.3799999952316284,0.12643080465495588,0.9599999785423279,0.0010000000474974513
1.6595104217529297,0.3799999952316284,0.1262799037620425,0.9700000286102295,0.0010000000474974513
1.4846656560897826,0.3799999952316284,0.14770857878029348,0.9399999976158142,0.0010000000474974513
1.993285894393921,0.3799999952316284,0.1323759786784649,0.949999988079071,0.0010000000474974513
1.6539660453796388,0.3799999952316284,0.11674803122878075,0.949999988079071,0.0010000000474974513
0.6479113698005676,0.6600000262260437,0.08165084645152092,0.9800000190734863,0.0010000000474974513
1.0707600951194762,0.46000000834465027,0.09973189383745193,0.9599999785423279,0.0010000000474974513
0.8341224312782287,0.6000000238418579,0.07743963850662113,0.9800000190734863,0.0010000000474974513
0.6898446202278137,0.6600000262260437,0.07727801818400622,0.9700000286102295,0.0010000000474974513
0.4250717759132385,0.7799999713897705,0.07668121652677655,0.9900000095367432,0.0010000000474974513
0.40779094099998475,0.7799999713897705,0.14068846236914395,0.949999988079071,0.0010000000474974513
0.5761328518390656,0.7200000286102295,0.06216076910495758,0.9900000095367432,0.0010000000474974513
0.5741375982761383,0.7200000286102295,0.07405120674520731,0.9700000286102295,0.0010000000474974513
0.3452869087457657,0.8600000143051147,0.07625687960535288,0.9800000190734863,0.0010000000474974513
0.8229544281959533,0.699999988079071,0.10421239901334048,0.9599999785423279,0.0010000000474974513
2.3205363750457764,0.3799999952316284,0.12881980873644353,0.949999988079071,0.0010000000474974513
1.0550190329551696,0.699999988079071,0.13064914476126432,0.9599999785423279,0.0010000000474974513
0.4133254289627075,0.800000011920929,0.13529744148254394,0.9599999785423279,0.0010000000474974513
0.3086657077074051,0.8399999737739563,0.10907300803810357,0.9800000190734863,0.0010000000474974513
0.5249167650938034,0.7799999713897705,0.18436171282082797,0.9300000071525574,0.0010000000474974513
0.5917554914951324,0.7400000095367432,0.19204505309462547,0.9300000071525574,0.0010000000474974513
0.3151624783873558,0.8600000143051147,0.13090605325996876,0.9599999785423279,0.0010000000474974513
0.18775494992733002,0.9399999976158142,0.09522461388260126,0.9599999785423279,0.0010000000474974513
0.4393450736999512,0.7799999713897705,0.07366384156048297,0.9900000095367432,0.0010000000474974513
0.24941173940896988,0.8999999761581421,0.10036966549232602,0.9900000095367432,0.0010000000474974513
0.49482197761535646,0.7799999713897705,0.1001924505457282,0.9800000190734863,0.0010000000474974513
0.22222366482019423,0.8799999952316284,0.061231603380292654,0.9900000095367432,0.0010000000474974513
0.365308079123497,0.8399999737739563,0.06714080311357976,0.9800000190734863,0.0010000000474974513
0.17128732204437255,0.9399999976158142,0.04504178510978818,1.0,0.0010000000474974513
0.19807601869106292,0.8999999761581421,0.043290306255221365,1.0,0.0010000000474974513
0.28384330570697786,0.8799999952316284,0.055077342130243775,0.9700000286102295,0.0010000000474974513
0.4253711014986038,0.800000011920929,0.035139348916709424,0.9900000095367432,0.0010000000474974513
0.40411299765110015,0.800000011920929,0.05311917788349092,0.9900000095367432,0.0010000000474974513
0.2229926124215126,0.9200000166893005,0.06536428690887988,0.9800000190734863,0.0010000000474974513
0.9522959291934967,0.6800000071525574,0.12943095490336418,0.9100000262260437,0.0010000000474974513
0.8344235271215439,0.7599999904632568,0.09559478294104337,0.9700000286102295,0.0010000000474974513
0.2210681777447462,0.9200000166893005,0.09316729046404362,0.9599999785423279,0.0010000000474974513
0.2388086397200823,0.8799999952316284,0.1065190845169127,0.9599999785423279,0.0010000000474974513
0.7215384900569916,0.7799999713897705,0.10401282981038093,0.9700000286102295,0.0010000000474974513
1.5442584872245788,0.6800000071525574,0.11949007287621498,0.9599999785423279,0.0010000000474974513
0.39462612867355346,0.8199999928474426,0.135768417827785,0.9599999785423279,0.0010000000474974513
0.31506676971912384,0.8799999952316284,0.07348264083266258,0.9900000095367432,0.0010000000474974513
0.2072760634124279,0.8999999761581421,0.0785514929331839,0.9800000190734863,0.0010000000474974513
0.21215296238660813,0.9200000166893005,0.03630537986755371,0.9900000095367432,0.0010000000474974513
0.19650260657072066,0.8999999761581421,0.10784396110102534,0.9599999785423279,0.0010000000474974513
0.7755244374275208,0.6200000047683716,0.08241175441071391,0.9700000286102295,0.0010000000474974513
0.2313965789973736,0.8999999761581421,0.08537184577435256,0.9800000190734863,0.0010000000474974513
0.2505681343376637,0.8999999761581421,0.045469595771282914,0.9900000095367432,0.0010000000474974513
0.17754272148013114,0.9399999976158142,0.03841934241354465,0.9900000095367432,0.0010000000474974513
0.18241320867091418,0.9200000166893005,0.030170104186981916,1.0,0.0010000000474974513
0.1978220298886299,0.9200000166893005,0.03779291578102857,0.9900000095367432,0.0010000000474974513
0.1989185743033886,0.9200000166893005,0.04829190862365067,0.9900000095367432,0.0010000000474974513
0.31116084158420565,0.8600000143051147,0.04858023240230978,0.9700000286102295,0.0010000000474974513
0.42676435112953187,0.8600000143051147,0.0718107795342803,0.9599999785423279,0.0010000000474974513
0.5798427790403367,0.7799999713897705,0.08151050433516502,0.9900000095367432,0.0010000000474974513
0.30584442242980003,0.8999999761581421,0.04137260178104043,0.9900000095367432,0.0010000000474974513
0.3238879591226578,0.8799999952316284,0.042619801172986624,0.9900000095367432,0.0010000000474974513
1.7825650095939636,0.6800000071525574,0.111341620888561,0.949999988079071,0.0010000000474974513
4.402655601501465,0.6200000047683716,0.11609357222914696,0.949999988079071,0.0010000000474974513
0.24718023091554642,0.8999999761581421,0.10890451222658157,0.9599999785423279,0.0010000000474974513
0.3882345914840698,0.8199999928474426,0.11576813561841845,0.9599999785423279,0.0010000000474974513
0.35982269048690796,0.8600000143051147,0.0434965425170958,1.0,0.0010000000474974513
0.25992766916751864,0.8399999737739563,0.047207252797670664,0.9900000095367432,0.0010000000474974513
0.2133716732263565,0.9200000166893005,0.03610541988164186,0.9900000095367432,0.0010000000474974513
0.23180240094661714,0.8999999761581421,0.02670132559724152,0.9900000095367432,0.0010000000474974513
0.23252455592155458,0.8999999761581421,0.03100516377016902,1.0,0.0010000000474974513
0.31446090042591096,0.8999999761581421,0.0317373710218817,1.0,0.0010000000474974513
0.24407367184758186,0.8799999952316284,0.03530443995259702,0.9800000190734863,0.0010000000474974513
0.22160936370491982,0.9200000166893005,0.030656521522905676,0.9900000095367432,0.0010000000474974513
0.22975413948297502,0.8999999761581421,0.010616098577156664,1.0,0.0010000000474974513
0.23160494156181813,0.9200000166893005,0.017631801404058935,1.0,0.0010000000474974513
0.3419240593910217,0.8799999952316284,0.010210024623665959,1.0,0.0010000000474974513
0.30738456547260284,0.8999999761581421,0.006006102031096816,1.0,0.0010000000474974513
0.2312295012176037,0.8999999761581421,0.008182954730000348,1.0,0.0010000000474974513
0.26339093297719957,0.8799999952316284,0.016825640958268197,1.0,0.0010000000474974513
0.46575857847929003,0.8399999737739563,0.020603267883416265,1.0,0.0010000000474974513
0.5590887062251568,0.8199999928474426,0.01893523265607655,1.0,0.0010000000474974513
0.18840801678597927,0.9200000166893005,0.012801885092630982,1.0,0.0010000000474974513
0.21690154150128366,0.8999999761581421,0.004742315830662846,1.0,0.0010000000474974513
0.23897902928292752,0.8999999761581421,0.006055836286395788,1.0,0.0010000000474974513
0.34464854970574377,0.8999999761581421,0.017530657863244415,1.0,0.0010000000474974513
0.6752373427152634,0.800000011920929,0.009102332964539528,1.0,0.0010000000474974513
0.5559593081474304,0.8199999928474426,0.021850646007806063,0.9900000095367432,0.0010000000474974513
0.26804018653929235,0.9200000166893005,0.009745093644596636,1.0,0.0010000000474974513
0.20441399812698363,0.9200000166893005,0.020013967133127152,1.0,0.0010000000474974513
0.8242430120706559,0.8199999928474426,0.02350761308334768,0.9900000095367432,0.0010000000474974513
0.23524432480335236,0.8999999761581421,0.012338835815899073,1.0,0.0010000000474974513
0.2798990456387401,0.8999999761581421,0.01829366498859599,1.0,0.0010000000474974513
0.2704403974115849,0.8999999761581421,0.022611723584122955,0.9900000095367432,0.0010000000474974513
0.3217798724770546,0.8600000143051147,0.0070361743681132795,1.0,0.0010000000474974513
0.2685922857373953,0.8999999761581421,0.007986888976301999,1.0,0.0010000000474974513
0.21293901987373828,0.8799999952316284,0.015079015074297786,1.0,0.0010000000474974513
0.22505397498607635,0.9399999976158142,0.006579697807319462,1.0,0.0010000000474974513
0.24917677864432336,0.8999999761581421,0.006150381290353835,1.0,0.0010000000474974513
0.22134956829249858,0.8999999761581421,0.004501088088727556,1.0,0.0010000000474974513
0.23854866474866868,0.8999999761581421,0.006626745662651956,1.0,0.0010000000474974513
0.294353018514812,0.9200000166893005,0.005252199689857661,1.0,0.0010000000474974513
0.2554596783593297,0.9200000166893005,0.009154893842060119,1.0,0.0010000000474974513
0.5534185364842414,0.8199999928474426,0.010405529651325195,1.0,0.0010000000474974513
0.317379217967391,0.9200000166893005,0.013452790980227291,0.9900000095367432,0.0010000000474974513
0.2834353053011,0.8999999761581421,0.019346840446814895,1.0,0.0010000000474974513
0.7406168073415756,0.7799999713897705,0.01943626459687948,1.0,0.0010000000474974513
0.32045275513082744,0.8999999761581421,0.008737541979644447,1.0,0.0010000000474974513
0.28801800310611725,0.8999999761581421,0.021931153489276767,1.0,0.0010000000474974513
0.2621193375438452,0.8999999761581421,0.013590176543220877,1.0,0.0010000000474974513
0.2563936813734472,0.8999999761581421,0.00942956458311528,1.0,0.0010000000474974513
0.2092883365228772,0.8999999761581421,0.0037239671102724968,1.0,0.0010000000474974513
0.28523088470101354,0.8999999761581421,0.004538846830837428,1.0,0.0010000000474974513
0.5717800557613373,0.8199999928474426,0.008079809392802418,1.0,0.0010000000474974513
0.886626449227333,0.7799999713897705,0.0052681421162560586,1.0,0.0010000000474974513
0.4287888161838055,0.8799999952316284,0.004611091958940961,1.0,0.0010000000474974513
0.25554922595620155,0.8999999761581421,0.01244406986515969,1.0,0.0010000000474974513
2.4642117977142335,0.6800000071525574,0.015414524544030427,1.0,0.0010000000474974513
2.123897933959961,0.5799999833106995,0.06605874840752221,0.9800000190734863,0.0010000000474974513
8.415328979492188,0.6200000047683716,0.3296498746611178,0.8500000238418579,0.0010000000474974513
11.53574504852295,0.6200000047683716,0.2767816359177232,0.9100000262260437,0.0010000000474974513
8.792793083190919,0.6200000047683716,0.3322675220668316,0.8500000238418579,0.0010000000474974513
3.4421465396881104,0.6600000262260437,0.2990193754434586,0.8700000047683716,0.0010000000474974513
1.6839818835258484,0.6800000071525574,0.17112017646431923,0.9300000071525574,0.0010000000474974513
1.0738239765167237,0.7200000286102295,0.23136033304035664,0.8799999952316284,0.0010000000474974513
1.271286630630493,0.6800000071525574,0.20406061001121997,0.9100000262260437,0.0010000000474974513
0.2808986656367779,0.8799999952316284,0.09391782097518445,0.9800000190734863,0.0010000000474974513
0.2753361701965332,0.8799999952316284,0.16293221563100815,0.9300000071525574,0.0010000000474974513
0.3807429105043411,0.8799999952316284,0.1256696148775518,0.9599999785423279,0.0010000000474974513
0.41438236832618713,0.800000011920929,0.07171642179600894,0.9800000190734863,0.0010000000474974513
0.30860054194927217,0.8799999952316284,0.10032308846712112,0.9700000286102295,0.0010000000474974513
0.9545766234397888,0.6600000262260437,0.08136682333424687,0.9900000095367432,0.0010000000474974513
1.0137668609619142,0.6600000262260437,0.0712135337293148,0.9800000190734863,0.0010000000474974513
0.18762116320431232,0.9200000166893005,0.09198887986131013,0.9700000286102295,0.0010000000474974513
0.32812575399875643,0.8799999952316284,0.07288335682824254,0.9800000190734863,0.0010000000474974513
0.6659233272075653,0.699999988079071,0.044062891975045204,0.9900000095367432,0.0010000000474974513
0.2641019716858864,0.8600000143051147,0.03144064054358751,1.0,0.0010000000474974513
1.1048532843589782,0.5199999809265137,0.07775421277619898,0.9700000286102295,0.0010000000474974513
0.22902946919202805,0.8799999952316284,0.05270013203844428,0.9800000190734863,0.0010000000474974513
0.7554751217365265,0.7200000286102295,0.04673781557939947,0.9900000095367432,0.0010000000474974513
0.7964117646217346,0.6600000262260437,0.03816188843920827,0.9800000190734863,0.0010000000474974513
0.17918387800455093,0.9399999976158142,0.04612556141801179,0.9900000095367432,0.0010000000474974513
0.46590951085090637,0.800000011920929,0.055966846039518715,0.9700000286102295,0.0010000000474974513
0.5047369867563247,0.800000011920929,0.018202002439647914,1.0,0.0010000000474974513
0.2645934447646141,0.8799999952316284,0.009512539301067591,1.0,0.0010000000474974513
0.19017070047557355,0.9200000166893005,0.010621056891977787,1.0,0.0010000000474974513
0.19320449344813823,0.9200000166893005,0.01165033970028162,1.0,0.0010000000474974513
0.23924450278282167,0.8999999761581421,0.01810342997778207,1.0,0.0010000000474974513
0.318194842338562,0.8999999761581421,0.0873321262653917,0.9700000286102295,0.0010000000474974513
0.8630493521690369,0.7599999904632568,0.05209198081865907,0.9900000095367432,0.0010000000474974513
1.711766117811203,0.7200000286102295,0.09274470396339893,0.9599999785423279,0.0010000000474974513
0.9930452406406403,0.7200000286102295,0.1387564731761813,0.9399999976158142,0.0010000000474974513
0.7775670051574707,0.699999988079071,0.0972584618255496,0.9599999785423279,0.0010000000474974513
0.31153684221208094,0.8799999952316284,0.10063659967854618,0.9300000071525574,0.0010000000474974513
2.4503891229629517,0.6800000071525574,0.10935304127633572,0.9399999976158142,0.0010000000474974513
0.2795683667063713,0.8799999952316284,0.0644471501931548,0.9800000190734863,0.0010000000474974513
0.5004055142402649,0.7799999713897705,0.04168940791860223,0.9900000095367432,0.0010000000474974513
0.1975416973233223,0.9200000166893005,0.023505787714384496,1.0,0.0010000000474974513
0.22417684271931648,0.9200000166893005,0.01872787525644526,1.0,0.0010000000474974513
0.2714675635099411,0.8600000143051147,0.0340300168376416,0.9900000095367432,0.0010000000474974513
0.22024952471256257,0.9200000166893005,0.01783105586655438,1.0,0.0010000000474974513
0.34117685407400133,0.8600000143051147,0.04080535829998553,0.9900000095367432,0.0010000000474974513
0.28530321046710017,0.8999999761581421,0.01737550364341587,1.0,0.0005000000237487257
0.22733931988477707,0.8999999761581421,0.0131305533926934,1.0,0.0005000000237487257
0.23347465246915816,0.8999999761581421,0.022624470060691237,1.0,0.0005000000237487257
0.23248524740338325,0.9200000166893005,0.014528290368616581,1.0,0.0005000000237487257
0.23573470190167428,0.9200000166893005,0.01633579987101257,1.0,0.0005000000237487257
0.2877101540565491,0.8799999952316284,0.006007195648271591,1.0,0.0005000000237487257
0.2671532481908798,0.8799999952316284,0.0049874695134349166,1.0,0.0005000000237487257
0.22134199049323797,0.8999999761581421,0.01998900978360325,1.0,0.0005000000237487257
0.4103761322796345,0.8600000143051147,0.020060682971961796,0.9900000095367432,0.0005000000237487257
0.3626795008778572,0.8999999761581421,0.009827498556114733,1.0,0.0005000000237487257
0.2211701486259699,0.9200000166893005,0.008563048718497158,1.0,0.0005000000237487257
0.20706988647580146,0.8999999761581421,0.009347028064075858,1.0,0.0005000000237487257
0.20815305039286613,0.8999999761581421,0.019448541419114916,1.0,0.0005000000237487257
0.22504317220300435,0.8999999761581421,0.004643195285461843,1.0,0.0005000000237487257
0.2288466090336442,0.8999999761581421,0.006046368216630071,1.0,0.0005000000237487257
0.2282263545319438,0.8999999761581421,0.0024497351434547452,1.0,0.0005000000237487257
0.229687568731606,0.8999999761581421,0.004798879090230912,1.0,0.0005000000237487257
0.23310078009963037,0.8999999761581421,0.003191571281058714,1.0,0.0005000000237487257
0.23728892281651498,0.8999999761581421,0.006224610074423253,1.0,0.0005000000237487257
0.23229527845978737,0.8799999952316284,0.014582797727780417,1.0,0.0005000000237487257
0.2400359995663166,0.8600000143051147,0.004369395296089351,1.0,0.0005000000237487257
0.2285202533006668,0.8799999952316284,0.0045326911204028875,1.0,0.0005000000237487257
0.22270193193107843,0.8999999761581421,0.0045974012115038935,1.0,0.0005000000237487257
0.23503338731825352,0.8999999761581421,0.0026438305503688753,1.0,0.0005000000237487257
0.23756377063691617,0.8999999761581421,0.0037861223798245193,1.0,0.0005000000237487257
0.22853370122611522,0.9200000166893005,0.005725194094702601,1.0,0.0005000000237487257
0.23199521601200104,0.9200000166893005,0.004400051897391677,1.0,0.0005000000237487257
0.2392317783087492,0.8999999761581421,0.002943653496913612,1.0,0.0005000000237487257
0.2541957788169384,0.8999999761581421,0.005104789999313653,1.0,0.0005000000237487257
0.2538508796133101,0.8999999761581421,0.0037067725555971266,1.0,0.0005000000237487257
0.26968423537909986,0.8999999761581421,0.0029649624833837152,1.0,0.0005000000237487257
0.28007686249911784,0.8999999761581421,0.0031118183746002615,1.0,0.0005000000237487257
0.3530933640897274,0.8999999761581421,0.009004019509302453,1.0,0.0005000000237487257
0.3790277078747749,0.9200000166893005,0.009807573893340304,1.0,0.0005000000237487257
0.380426199734211,0.8999999761581421,0.001944207347696647,1.0,0.0005000000237487257
0.34064248483628035,0.9200000166893005,0.010943666979437694,1.0,0.0005000000237487257
0.29085837183520197,0.9200000166893005,0.002563203446334228,1.0,0.0005000000237487257
0.26773906508460643,0.8999999761581421,0.002464738383423537,1.0,0.0005000000237487257
0.24738016417250036,0.8999999761581421,0.00244703734642826,1.0,0.0005000000237487257
0.24376063626259564,0.9200000166893005,0.00600132365943864,1.0,0.0005000000237487257
0.266019351221621,0.9200000166893005,0.0066723785770591345,1.0,0.0005000000237487257
0.2894294152967632,0.9200000166893005,0.0026563563704257833,1.0,0.0005000000237487257
0.2914150361903012,0.9200000166893005,0.001610775536391884,1.0,0.0005000000237487257
0.2841743927448988,0.9200000166893005,0.0018899673479609192,1.0,0.0005000000237487257
0.2549428160302341,0.8999999761581421,0.003493078544852324,1.0,0.0005000000237487257
0.3677925869822502,0.8799999952316284,0.013450343103613704,1.0,0.0005000000237487257
0.3043082360178232,0.8999999761581421,0.002611559984507039,1.0,0.0005000000237487257
0.2868028623983264,0.9200000166893005,0.0018817028263583778,1.0,0.0005000000237487257
0.28236922798678277,0.9200000166893005,0.002113662016927265,1.0,0.0005000000237487257
0.2868692997843027,0.8999999761581421,0.0020448281342396513,1.0,0.0005000000237487257
0.28816375881433487,0.8999999761581421,0.0010903754257014953,1.0,0.0005000000237487257
0.2884180976077914,0.8999999761581421,0.0024882013152819128,1.0,0.0005000000237487257
0.29730790266767143,0.9200000166893005,0.00551384124555625,1.0,0.0005000000237487257
0.3321310319937766,0.9200000166893005,0.003979626623913646,1.0,0.0005000000237487257
0.3508908212184906,0.9200000166893005,0.0019970911467680707,1.0,0.0005000000237487257
0.3350449549034238,0.9200000166893005,0.001675557516864501,1.0,0.0005000000237487257
0.3213808166794479,0.9200000166893005,0.0014756559889065103,1.0,0.0005000000237487257
0.3187046471051872,0.9200000166893005,0.001331246440531686,1.0,0.0005000000237487257
0.31547487452626227,0.9200000166893005,0.0006982184044318273,1.0,0.0005000000237487257
0.7630118414759636,0.8399999737739563,0.014762707409681752,1.0,0.0005000000237487257
0.3436112616211176,0.9399999976158142,0.018469632137566805,0.9900000095367432,0.0005000000237487257
0.2818383306264877,0.8999999761581421,0.00894550366792828,1.0,0.0005000000237487257
0.30118383951485156,0.8999999761581421,0.01170998330344446,1.0,0.0005000000237487257
0.26676752492785455,0.8999999761581421,0.0077329500898486005,1.0,0.0005000000237487257
0.23801136054098607,0.8999999761581421,0.0021170707390410826,1.0,0.0005000000237487257
0.2384757177904248,0.9200000166893005,0.004109768354101107,1.0,0.0005000000237487257
0.263103293068707,0.9200000166893005,0.0012673216930124908,1.0,0.0005000000237487257
0.3010141515173018,0.9200000166893005,0.002738842631515581,1.0,0.0005000000237487257
0.25352232744917275,0.8999999761581421,0.005970204269397072,1.0,0.0005000000237487257
0.24570022393018007,0.8999999761581421,0.0020430516509804876,1.0,0.0005000000237487257
0.26250987565144895,0.8999999761581421,0.002967250265646726,1.0,0.0005000000237487257
0.296905620675534,0.9200000166893005,0.0013799112377455458,1.0,0.0005000000237487257
0.32433659546077254,0.9200000166893005,0.0036933458934072403,1.0,0.0005000000237487257
0.3315805305726826,0.9200000166893005,0.0017323534819297492,1.0,0.0005000000237487257
0.3256382912397385,0.9200000166893005,0.0009716121421661228,1.0,0.0005000000237487257
0.34774783118627967,0.9200000166893005,0.001495439582504332,1.0,0.0005000000237487257
0.3450777451507747,0.9200000166893005,0.001179547535139136,1.0,0.0005000000237487257
0.3263966671656817,0.9200000166893005,0.004194981086766347,1.0,0.0005000000237487257
0.3318685389123857,0.9200000166893005,0.002265916092437692,1.0,0.0005000000237487257
0.26314524142071605,0.8999999761581421,0.007357084273826331,1.0,0.0005000000237487257
0.2584099049679935,0.8999999761581421,0.00959158942278009,1.0,0.0005000000237487257
0.32238227128982544,0.8999999761581421,0.0019069265166763217,1.0,0.0005000000237487257
0.2863576074130833,0.9200000166893005,0.005927491333568469,1.0,0.0005000000237487257
0.27096330947242675,0.9200000166893005,0.0016912458057049661,1.0,0.0005000000237487257
0.2859709968790412,0.9399999976158142,0.003385336205246858,1.0,0.0005000000237487257
0.2711338701657951,0.9200000166893005,0.003974194175680168,1.0,0.0005000000237487257
0.2728981644846499,0.8799999952316284,0.004766913078492507,1.0,0.0005000000237487257
0.27445576349273326,0.8999999761581421,0.00315674033772666,1.0,0.0005000000237487257
0.2903430379927158,0.8999999761581421,0.0010514386784052476,1.0,0.0005000000237487257
0.3062192744575441,0.9200000166893005,0.0017147790087619797,1.0,0.0005000000237487257
0.3213770342059433,0.9200000166893005,0.0013563048167270608,1.0,0.0005000000237487257
0.32153754578903315,0.9200000166893005,0.0009193302350468003,1.0,0.0005000000237487257
0.33053265353664757,0.9200000166893005,0.002353177123586647,1.0,0.0005000000237487257
0.3191076816059649,0.8999999761581421,0.0010110975796123966,1.0,0.0005000000237487257
0.3505708137527108,0.8999999761581421,0.0020146858238149433,1.0,0.0005000000237487257
0.3341766720172018,0.8999999761581421,0.0011228459305129945,1.0,0.0005000000237487257
0.31478281458839774,0.9200000166893005,0.00219291023677215,1.0,0.0005000000237487257
0.31681764614768326,0.9200000166893005,0.0008720058787730523,1.0,0.0005000000237487257
0.31202820781618357,0.9200000166893005,0.0008600107015809044,1.0,0.0005000000237487257
0.30957188359461724,0.9200000166893005,0.002382650793879293,1.0,0.0005000000237487257
0.3306058286689222,0.9200000166893005,0.0015617837503668851,1.0,0.0005000000237487257
0.34781829002313314,0.8999999761581421,0.0005999130517011508,1.0,0.0005000000237487257
0.35798900993540883,0.9200000166893005,0.0020629801627364943,1.0,0.0005000000237487257
0.36081155454739927,0.9200000166893005,0.0006303156435023994,1.0,0.0005000000237487257
0.32947896104305985,0.9200000166893005,0.0014246995706344023,1.0,0.0005000000237487257
0.411871123034507,0.9200000166893005,0.004685977078042925,1.0,0.0005000000237487257
0.3947163701057434,0.9200000166893005,0.0014978271079598925,1.0,0.0005000000237487257
0.32709375373087823,0.8999999761581421,0.003514341474510729,1.0,0.0005000000237487257
0.28579120673239233,0.8999999761581421,0.0019252644386142492,1.0,0.0005000000237487257
0.28759276056662203,0.9200000166893005,0.0017559158528456464,1.0,0.0002500000118743628
0.29981296611949804,0.8999999761581421,0.0035619820904685185,1.0,0.0002500000118743628
0.31245677643455566,0.8999999761581421,0.0008419534467975609,1.0,0.0002500000118743628
0.31746728206053376,0.8999999761581421,0.0007123785646399484,1.0,0.0002500000118743628
0.32194087011739614,0.8999999761581421,0.0024669601771165617,1.0,0.0002500000118743628
0.33130508521571755,0.8999999761581421,0.0016472086106659844,1.0,0.0002500000118743628
0.3382663291413337,0.9200000166893005,0.00257286996638868,1.0,0.0002500000118743628
0.37422650335356594,0.8999999761581421,0.0007006414525676519,1.0,0.0002500000118743628
0.3883686577901244,0.8999999761581421,0.000838211267546285,1.0,0.0002500000118743628
0.3966298414394259,0.8999999761581421,0.001768506878579501,1.0,0.0002500000118743628
0.38926889579743146,0.8999999761581421,0.000993379951978568,1.0,0.0002500000118743628
0.3630696271546185,0.9200000166893005,0.0011075166330556385,1.0,0.0002500000118743628
0.3479872962459922,0.9200000166893005,0.001175740132748615,1.0,0.0002500000118743628
0.3437639392912388,0.9200000166893005,0.0010206179365923162,1.0,0.0002500000118743628
0.33558107414282856,0.8999999761581421,0.0015643150924006476,1.0,0.0002500000118743628
0.32554060872644186,0.8999999761581421,0.0008667407353641465,1.0,0.0002500000118743628
0.32291870974004266,0.8999999761581421,0.0006582780741155147,1.0,0.0002500000118743628
0.29925675839185717,0.8999999761581421,0.0019294595942483284,1.0,0.0002500000118743628
0.30239993664436043,0.8999999761581421,0.0011378888331819326,1.0,0.0002500000118743628
0.30798953576013444,0.8999999761581421,0.0010550405757385306,1.0,0.0002500000118743628
0.31255964199081065,0.8999999761581421,0.0015386825587484054,1.0,0.0002500000118743628
0.31033209674060347,0.8999999761581421,0.0006748489147867076,1.0,0.0002500000118743628
0.31111847413703797,0.8999999761581421,0.0003887622478941921,1.0,0.0002500000118743628
0.30860570557415484,0.8999999761581421,0.0006624509274843149,1.0,0.0002500000118743628
0.3118864797987044,0.8999999761581421,0.0012164328159997239,1.0,0.0002500000118743628
0.3214889980852604,0.8999999761581421,0.0015083008620422333,1.0,0.0002500000118743628
0.3237081980332732,0.8999999761581421,0.0011030731737264432,1.0,0.0002500000118743628
0.3155789897311479,0.8999999761581421,0.0012240967946127058,1.0,0.0002500000118743628
0.3103182784281671,0.8999999761581421,0.001078065273759421,1.0,0.0002500000118743628
0.30783179625868795,0.8999999761581421,0.0007336892929743044,1.0,0.0002500000118743628
0.30811163419857623,0.8999999761581421,0.00039633062697248534,1.0,0.0002500000118743628
0.31022859998047353,0.8999999761581421,0.0005258296769170556,1.0,0.0002500000118743628
0.3179888814687729,0.8999999761581421,0.001170331527828239,1.0,0.0002500000118743628
0.32388091017492115,0.8999999761581421,0.00044440672936616463,1.0,0.0002500000118743628
0.3251765319146216,0.8999999761581421,0.000767140492098406,1.0,0.0002500000118743628
0.3293701544869691,0.8999999761581421,0.0010973244250635616,1.0,0.0002500000118743628
0.3330909457989037,0.8999999761581421,0.001381507536279969,1.0,0.0002500000118743628
0.34147176432888954,0.8999999761581421,0.0005898108080145903,1.0,0.0002500000118743628
0.34124840931035577,0.8999999761581421,0.0013453267369186507,1.0,0.0002500000118743628
0.3466240289155394,0.9200000166893005,0.0006767344893887639,1.0,0.0002500000118743628
0.3467446530703455,0.9200000166893005,0.0006966574699617922,1.0,0.0002500000118743628
0.3416097839828581,0.8999999761581421,0.0014127554473816416,1.0,0.0002500000118743628
0.33520640917122363,0.8999999761581421,0.0004945620225043967,1.0,0.0002500000118743628
0.33006521705538033,0.9200000166893005,0.001085705954756122,1.0,0.0002500000118743628
0.3281455887015909,0.9200000166893005,0.0005893233639653773,1.0,0.0002500000118743628
0.3435142512666062,0.9200000166893005,0.00305195424152771,1.0,0.0002500000118743628
0.35326474434696137,0.8999999761581421,0.0005781317042419687,1.0,0.0002500000118743628
0.3461078712018207,0.8999999761581421,0.0007637728806002997,1.0,0.0002500000118743628
0.3483642050297931,0.9200000166893005,0.0012218165989906992,1.0,0.0002500000118743628
0.30920132584869864,0.9200000166893005,0.0029554769294918514,1.0,0.0002500000118743628
0.25357795944437383,0.9200000166893005,0.00042470154585316777,1.0,0.0002500000118743628
0.25172668090090156,0.8999999761581421,0.0013182568800402805,1.0,0.0002500000118743628
0.2643858286552131,0.8999999761581421,0.0005881845892872662,1.0,0.0002500000118743628
0.3169540654867887,0.8999999761581421,0.003043070594139863,1.0,0.0002500000118743628
0.3717613726388663,0.8999999761581421,0.0012789815285941587,1.0,0.0002500000118743628
0.3947326637338847,0.8999999761581421,0.0008028523836401292,1.0,0.0002500000118743628
0.3972707087174058,0.8999999761581421,0.00045031506451778116,1.0,0.0002500000118743628
0.3916594447102398,0.8999999761581421,0.000490448932396248,1.0,0.0002500000118743628
0.37756315744481983,0.9200000166893005,0.0022026943348464555,1.0,0.0002500000118743628
0.39533157437108457,0.8999999761581421,0.0013036155971349217,1.0,0.0002500000118743628
0.34501401549205185,0.9200000166893005,0.0023562139474961443,1.0,0.0002500000118743628
0.30291552264243365,0.8999999761581421,0.0013680531934369355,1.0,0.0002500000118743628
0.3060114908497781,0.8999999761581421,0.0005487471295055002,1.0,0.0002500000118743628
0.31487248074263335,0.8999999761581421,0.0007406815704598558,1.0,0.0002500000118743628
0.32585628405213357,0.8999999761581421,0.0005431934798252769,1.0,0.0002500000118743628
0.3304765983019024,0.8999999761581421,0.0005272152244288009,1.0,0.0002500000118743628
0.33269828618504105,0.8999999761581421,0.000565561800613068,1.0,0.0002500000118743628
0.33213691231794656,0.8999999761581421,0.0004290111202863045,1.0,0.0002500000118743628
0.33080758517608044,0.8999999761581421,0.00043784521403722465,1.0,0.0002500000118743628
0.3309438650496304,0.8999999761581421,0.000795424850366544,1.0,0.0002500000118743628
0.32927769059315326,0.8999999761581421,0.00036162958640488795,1.0,0.0002500000118743628
0.3308366698212922,0.8999999761581421,0.0009706250217277557,1.0,0.0002500000118743628
0.33235041121952236,0.8999999761581421,0.0006304774731688667,1.0,0.0002500000118743628
0.3326276519335806,0.8999999761581421,0.0004818424728000537,1.0,0.0001250000059371814
0.33302832054905596,0.8999999761581421,0.0007438875996740535,1.0,0.0001250000059371814
0.33555784048512577,0.8999999761581421,0.0005286834988510236,1.0,0.0001250000059371814
0.34136492693796755,0.8999999761581421,0.0009501589491264894,1.0,0.0001250000059371814
0.43788413014262917,0.8999999761581421,0.02242965181649197,0.9900000095367432,0.0001250000059371814
1.3298670887947082,0.800000011920929,0.012143646186450497,1.0,0.0001250000059371814
0.510731968516484,0.8799999952316284,0.0012961802392965182,1.0,0.0001250000059371814
0.3833574836375192,0.8999999761581421,0.004794544202741236,1.0,0.0001250000059371814
0.36023306698771196,0.8799999952316284,0.0030869768583215774,1.0,0.0001250000059371814
0.32757007868494836,0.9200000166893005,0.002323016498121433,1.0,0.0001250000059371814
0.3121660680510104,0.9200000166893005,0.0012721888779196888,1.0,0.0001250000059371814
0.3031769515713677,0.9200000166893005,0.0014423978282138705,1.0,0.0001250000059371814
0.29892717630136756,0.9200000166893005,0.0005374143889639527,1.0,0.0001250000059371814
0.29629717729985716,0.9200000166893005,0.000664618072914891,1.0,0.0001250000059371814
0.29465050594881176,0.9200000166893005,0.0016812733076221776,1.0,0.0001250000059371814
0.28836244833655655,0.9200000166893005,0.0017923746723681687,1.0,0.0001250000059371814
0.2852168081328273,0.9200000166893005,0.0007273908267961815,1.0,0.0001250000059371814
0.28433362394571304,0.9200000166893005,0.00045847055298509076,1.0,0.0001250000059371814
0.2807700782548636,0.9200000166893005,0.0013470201723976062,1.0,0.0001250000059371814
0.28162422925233843,0.9200000166893005,0.001231770878075622,1.0,0.0001250000059371814
0.2738317307084799,0.9200000166893005,0.004246237014012877,1.0,0.0001250000059371814
0.2702925916295499,0.9200000166893005,0.0008843357965815813,1.0,0.0001250000059371814
0.2707542003598064,0.9200000166893005,0.0009801012434763833,1.0,0.0001250000059371814
0.2757734263315797,0.9200000166893005,0.0006562342066899873,1.0,0.0001250000059371814
0.28202500245533885,0.9200000166893005,0.0006507520192826632,1.0,0.0001250000059371814
0.28578978474251926,0.9200000166893005,0.0009196348939440214,1.0,0.0001250000059371814
0.2847451499197632,0.9200000166893005,0.0009105514400289394,1.0,0.0001250000059371814
0.29235633960925045,0.8999999761581421,0.0017936693402589299,1.0,0.0001250000059371814
0.2953612431883812,0.8999999761581421,0.0009813228069106116,1.0,0.0001250000059371814
0.2978685858193785,0.8999999761581421,0.0013081530341878533,1.0,0.0001250000059371814
0.29972214102745054,0.8999999761581421,0.0015380176293547266,1.0,0.0001250000059371814
0.3075894257053733,0.8999999761581421,0.0017771975151845254,1.0,0.0001250000059371814
0.3107123450608924,0.8999999761581421,0.0006614700960199116,1.0,0.0001250000059371814
0.31338623121846465,0.8999999761581421,0.0004910118623229209,1.0,0.0001250000059371814
0.3177926058182493,0.8999999761581421,0.001510174440772971,1.0,0.0001250000059371814
0.3057269328273833,0.8999999761581421,0.0028939301701029763,1.0,0.0001250000059371814
0.302594348276034,0.8999999761581421,0.00039109927965910176,1.0,0.0001250000059371814
0.30374506595544515,0.8999999761581421,0.0007755812883260659,1.0,0.0001250000059371814
0.30689725703559817,0.8999999761581421,0.000941186181444209,1.0,0.0001250000059371814
0.3101015581283718,0.8999999761581421,0.0004334964556619525,1.0,0.0001250000059371814
0.31345716789364814,0.8999999761581421,0.0007255546384840273,1.0,0.0001250000059371814
0.3049156843684614,0.8999999761581421,0.001562311231100466,1.0,0.0001250000059371814
0.29524011299945413,0.8999999761581421,0.001297203841386363,1.0,0.0001250000059371814
0.2863534386269748,0.8999999761581421,0.00044516484122141263,1.0,0.0001250000059371814
0.28942800792865453,0.8999999761581421,0.0007083994736603927,1.0,0.0001250000059371814
0.29949585227295755,0.8999999761581421,0.001408640896261204,1.0,0.0001250000059371814
0.31245565293356775,0.8999999761581421,0.00046935888676671313,1.0,0.0001250000059371814
0.3198866867925972,0.8999999761581421,0.0007545229615061544,1.0,0.0001250000059371814
0.3255457420600578,0.8999999761581421,0.0007098603957274463,1.0,0.0001250000059371814
0.32707356768660245,0.8999999761581421,0.0005059851566329599,1.0,0.0001250000059371814
0.3277880982263014,0.8999999761581421,0.0005262057718937285,1.0,9.999999747378752e-05
0.3287329245824367,0.8999999761581421,0.0005223082051088567,1.0,9.999999747378752e-05
0.33142900399398056,0.8999999761581421,0.0014201316429534928,1.0,9.999999747378752e-05
0.3280968628823757,0.8999999761581421,0.0018848649102437775,1.0,9.999999747378752e-05
0.3358359812758863,0.8999999761581421,0.0006037689418008085,1.0,9.999999747378752e-05
0.3386397328227758,0.8999999761581421,0.0008557981578633189,1.0,9.999999747378752e-05
0.33949708319269123,0.8999999761581421,0.00033103722598752937,1.0,9.999999747378752e-05
0.33928495401050895,0.8999999761581421,0.0006260233174543827,1.0,9.999999747378752e-05
0.33843267017509787,0.8999999761581421,0.00042971419024979697,1.0,9.999999747378752e-05
0.3404275549808517,0.8999999761581421,0.001155012297385838,1.0,9.999999747378752e-05
0.3430352982133627,0.8999999761581421,0.0010501680582819973,1.0,9.999999747378752e-05
0.34756349395029246,0.8999999761581421,0.0013089604544802569,1.0,9.999999747378752e-05
0.35345579045824704,0.8999999761581421,0.0009307631386036519,1.0,9.999999747378752e-05
0.3546899064676836,0.8999999761581421,0.0009259571896109264,1.0,9.999999747378752e-05
0.3512760164681822,0.8999999761581421,0.0005587828796706163,1.0,9.999999747378752e-05
0.3493029274046421,0.8999999761581421,0.00040602102089906114,1.0,9.999999747378752e-05
0.3459872317966074,0.8999999761581421,0.00026264990810886957,1.0,9.999999747378752e-05
0.3549789149779826,0.8999999761581421,0.0017055505028110928,1.0,9.999999747378752e-05
0.35468877241946756,0.9200000166893005,0.0009822581632761285,1.0,9.999999747378752e-05
0.35631861803121867,0.9200000166893005,0.001951260610076133,1.0,9.999999747378752e-05
0.35571959463413805,0.8999999761581421,0.000360875539627159,1.0,9.999999747378752e-05
0.3535948297474533,0.8999999761581421,0.0003258225704485085,1.0,9.999999747378752e-05
0.35177310958970337,0.8999999761581421,0.0005998133317916654,1.0,9.999999747378752e-05
0.34855572897940873,0.8999999761581421,0.0011448451739852316,1.0,9.999999747378752e-05
0.34678122131153943,0.8999999761581421,0.0007119000547390897,1.0,9.999999747378752e-05
0.34423829454462973,0.8999999761581421,0.001807626328081824,1.0,9.999999747378752e-05
0.3351994707249105,0.8999999761581421,0.002352060530392919,1.0,9.999999747378752e-05
0.3097253242041916,0.8999999761581421,0.00032977180162561124,1.0,9.999999747378752e-05
0.30432607694528996,0.8999999761581421,0.0005620209529297426,1.0,9.999999747378752e-05
0.3055460804142058,0.8999999761581421,0.00038358310848707333,1.0,9.999999747378752e-05
0.30828424063511195,0.8999999761581421,0.0019926420391129795,1.0,9.999999747378752e-05
0.3203507823403925,0.8999999761581421,0.00053309171271394,1.0,9.999999747378752e-05
0.32679350427351894,0.8999999761581421,0.0005594138227024814,1.0,9.999999747378752e-05
0.33844732735306027,0.8999999761581421,0.0016283389726595488,1.0,9.999999747378752e-05
0.6164536759257316,0.8399999737739563,0.016091447083454113,0.9900000095367432,9.999999747378752e-05
0.4792646788060665,0.8799999952316284,0.006362002063542605,1.0,9.999999747378752e-05
0.413551335176453,0.8999999761581421,0.003144169008010067,1.0,9.999999747378752e-05
0.4966582652181387,0.8999999761581421,0.00520529651112156,1.0,9.999999747378752e-05
0.5257529504597187,0.8999999761581421,0.0013501441368134691,1.0,9.999999747378752e-05
0.48826457038521764,0.8999999761581421,0.0012648149859160185,1.0,9.999999747378752e-05
0.4515419457107782,0.8999999761581421,0.0006721860001562164,1.0,9.999999747378752e-05
0.4196788929402828,0.9200000166893005,0.0014292641295469365,1.0,9.999999747378752e-05
0.3979461110197008,0.8999999761581421,0.00038719255389878525,1.0,9.999999747378752e-05
0.3893152139149606,0.8999999761581421,0.0008515815352438949,1.0,9.999999747378752e-05
0.38019106527790425,0.8999999761581421,0.00042421436664881186,1.0,9.999999747378752e-05
0.3730609403923154,0.8999999761581421,0.0005416469444753602,1.0,9.999999747378752e-05
0.36638532313518224,0.8999999761581421,0.0007384902899502776,1.0,9.999999747378752e-05
0.360429602349177,0.8999999761581421,0.00044664054657914674,1.0,9.999999747378752e-05
0.3564567937981337,0.8999999761581421,0.000635289988713339,1.0,9.999999747378752e-05
0.35213388935662804,0.8999999761581421,0.0007273968622030225,1.0,9.999999747378752e-05
0.33358987802639606,0.8999999761581421,0.0020122960551816503,1.0,9.999999747378752e-05
0.32886158032342794,0.8999999761581421,0.0014803052239585669,1.0,9.999999747378752e-05
0.3285229728091508,0.8999999761581421,0.0006920112122315913,1.0,9.999999747378752e-05
0.3277276965789497,0.8999999761581421,0.0004658755147829652,1.0,9.999999747378752e-05
0.3293741495814174,0.8999999761581421,0.0006643683154834434,1.0,9.999999747378752e-05
0.3379934811964631,0.8999999761581421,0.000603652562131174,1.0,9.999999747378752e-05
0.3455632979981601,0.8999999761581421,0.0005293169262586162,1.0,9.999999747378752e-05
0.35094230151735245,0.8999999761581421,0.0006722304431605152,1.0,9.999999747378752e-05
0.35151500622741877,0.8999999761581421,0.00031814887770451603,1.0,9.999999747378752e-05
0.35008136788383126,0.8999999761581421,0.0006095006596297025,1.0,9.999999747378752e-05
0.3474674684926867,0.8999999761581421,0.0004850674973567948,1.0,9.999999747378752e-05
0.3484832996502519,0.8999999761581421,0.0021687589993234723,1.0,9.999999747378752e-05
0.35305451368913054,0.8999999761581421,0.000355509459041059,1.0,9.999999747378752e-05
0.35313364015892146,0.8999999761581421,0.0003204396642104257,1.0,9.999999747378752e-05
0.3528322376310825,0.8999999761581421,0.0011477584776002914,1.0,9.999999747378752e-05
0.35212346534244715,0.8999999761581421,0.0004926482632072293,1.0,9.999999747378752e-05
0.3513036518357694,0.8999999761581421,0.000523875613725977,1.0,9.999999747378752e-05
0.3508759807329625,0.8999999761581421,0.0008183813180949074,1.0,9.999999747378752e-05
0.33946687458083036,0.8999999761581421,0.0018409200049063657,1.0,9.999999747378752e-05
0.32971240910701455,0.8999999761581421,0.001418813225973281,1.0,9.999999747378752e-05
0.32638420253060757,0.8999999761581421,0.0006374176256940701,1.0,9.999999747378752e-05
0.32729633767157795,0.8999999761581421,0.00027923269080929456,1.0,9.999999747378752e-05
0.3294331134296954,0.8999999761581421,0.0002902916407037992,1.0,9.999999747378752e-05
0.3317355539649725,0.8999999761581421,0.00045938600960653274,1.0,9.999999747378752e-05
0.3333206329960376,0.8999999761581421,0.00017700316820992156,1.0,9.999999747378752e-05
0.3356289301533252,0.8999999761581421,0.0003038093927898444,1.0,9.999999747378752e-05
0.3376017713919282,0.8999999761581421,0.0006409351131878793,1.0,9.999999747378752e-05
0.3404543804936111,0.8999999761581421,0.0007392659004835878,1.0,9.999999747378752e-05
0.3421252398286015,0.8999999761581421,0.0011219447645999026,1.0,9.999999747378752e-05
0.3457116410601884,0.8999999761581421,0.0012901518981379922,1.0,9.999999747378752e-05
0.35016496470198033,0.8999999761581421,0.0010077119775814935,1.0,9.999999747378752e-05
0.3519762807060033,0.8999999761581421,0.0003296907125331927,1.0,9.999999747378752e-05
0.3515403036493808,0.8999999761581421,0.0003610265324823558,1.0,9.999999747378752e-05
0.34903334348928183,0.8999999761581421,0.0018368726952758152,1.0,9.999999747378752e-05
0.3391736048739403,0.8999999761581421,0.0006110361027822364,1.0,9.999999747378752e-05
0.33533524731174114,0.8999999761581421,0.0009213811910740333,1.0,9.999999747378752e-05
0.336600851546973,0.8999999761581421,0.0010548218178882962,1.0,9.999999747378752e-05
0.3547516980674118,0.8999999761581421,0.0017066818465536926,1.0,9.999999747378752e-05
0.3639929261757061,0.8999999761581421,0.0008268493271316402,1.0,9.999999747378752e-05
0.36330073706340044,0.8999999761581421,0.0008173412919859402,1.0,9.999999747378752e-05
0.3624895878136158,0.8999999761581421,0.0003322947952256072,1.0,9.999999747378752e-05
0.3580176922027022,0.8999999761581421,0.00023778068280080333,1.0,9.999999747378752e-05
0.3566594920819625,0.8999999761581421,0.000429141684435308,1.0,9.999999747378752e-05
0.3564086115453392,0.8999999761581421,0.0003045143443159759,1.0,9.999999747378752e-05
0.3526007149601355,0.8999999761581421,0.0013186805794248358,1.0,9.999999747378752e-05
0.35111256591044365,0.8999999761581421,0.000907296346849762,1.0,9.999999747378752e-05
0.352830945700407,0.8999999761581421,0.00041304915976070333,1.0,9.999999747378752e-05
0.35241151000373067,0.8999999761581421,0.00018419764019199646,1.0,9.999999747378752e-05
0.3526108130346984,0.8999999761581421,0.00039547905980725774,1.0,9.999999747378752e-05
0.35130505776032805,0.8999999761581421,0.0003504813415929675,1.0,9.999999747378752e-05
0.3462956604780629,0.8999999761581421,0.0003240734789869748,1.0,9.999999747378752e-05
0.34283587464597076,0.8999999761581421,0.0009904926278977654,1.0,9.999999747378752e-05
0.3416192495729774,0.8999999761581421,0.0005166738599655218,1.0,9.999999747378752e-05
0.33110310095362366,0.8999999761581421,0.0018267247563926504,1.0,9.999999747378752e-05
0.3265956598799676,0.8999999761581421,0.00044675767130684105,1.0,9.999999747378752e-05
0.32577153109014034,0.8999999761581421,0.00035296409041620793,1.0,9.999999747378752e-05
0.3228289454244077,0.8999999761581421,0.0009435851839953102,1.0,9.999999747378752e-05
0.32683655046857896,0.8999999761581421,0.0005848526561749168,1.0,9.999999747378752e-05
0.3158424145076424,0.8999999761581421,0.0019707106104760895,1.0,9.999999747378752e-05
0.3120589471422136,0.8999999761581421,0.0004229994388879277,1.0,9.999999747378752e-05
0.313534875609912,0.8999999761581421,0.0006425371779187117,1.0,9.999999747378752e-05
0.3109765459550545,0.8999999761581421,0.00040396456024609505,1.0,9.999999747378752e-05
0.3136455230182037,0.8999999761581421,0.0008449414803180843,1.0,9.999999747378752e-05
0.31381205362267794,0.8999999761581421,0.0005651374136505183,1.0,9.999999747378752e-05
0.31408134060911835,0.8999999761581421,0.0004010085729532875,1.0,9.999999747378752e-05
0.3213546187849715,0.8999999761581421,0.0005226778604992433,1.0,9.999999747378752e-05
0.32234398354776206,0.8999999761581421,0.0008144919986079913,1.0,9.999999747378752e-05
0.3238833028124645,0.8999999761581421,0.0002580660591775086,1.0,9.999999747378752e-05
0.3238789709750563,0.8999999761581421,0.00020606968137144578,1.0,9.999999747378752e-05
0.3114399661310017,0.8999999761581421,0.0015242440669680946,1.0,9.999999747378752e-05
0.3004987059161067,0.8999999761581421,0.0005149616448761662,1.0,9.999999747378752e-05
0.3059855273924768,0.8999999761581421,0.00030546573871106377,1.0,9.999999747378752e-05
0.31318607870489357,0.8999999761581421,0.000602441363298567,1.0,9.999999747378752e-05
0.32286265371367334,0.8999999761581421,0.0006384986714692787,1.0,9.999999747378752e-05
0.3255500182043761,0.8999999761581421,0.0006288004144153092,1.0,9.999999747378752e-05
0.3248901151120663,0.8999999761581421,0.0006753496127203107,1.0,9.999999747378752e-05
0.3242308540502563,0.8999999761581421,0.0006441331544920104,1.0,9.999999747378752e-05
0.3325046912766993,0.8999999761581421,0.0007264147898240481,1.0,9.999999747378752e-05
0.33552134078927337,0.8999999761581421,0.0004696800409874413,1.0,9.999999747378752e-05
0.34294063835404814,0.8999999761581421,0.0008544907817849889,1.0,9.999999747378752e-05
0.34810245151165875,0.8999999761581421,0.0020032251377415378,1.0,9.999999747378752e-05
0.3543739692308009,0.8999999761581421,0.0004844953928113682,1.0,9.999999747378752e-05
0.3316219178494066,0.8999999761581421,0.0024429908276943023,1.0,9.999999747378752e-05
0.3304188919253647,0.9200000166893005,0.0006015107157509192,1.0,9.999999747378752e-05
0.34359580082818864,0.9200000166893005,0.00024267108892672695,1.0,9.999999747378752e-05
0.37601661605294795,0.8999999761581421,0.0018980877102876548,1.0,9.999999747378752e-05
0.3691555475350469,0.8999999761581421,0.00035988011659355835,1.0,9.999999747378752e-05
0.35954043943202124,0.8999999761581421,0.0007178085113991983,1.0,9.999999747378752e-05
0.35173092093318703,0.8999999761581421,0.000222198596020462,1.0,9.999999747378752e-05
0.35067657977342603,0.9200000166893005,0.0005665981116180774,1.0,9.999999747378752e-05
0.35368515583686533,0.9200000166893005,0.0003631421201134799,1.0,9.999999747378752e-05
0.36822208783123644,0.8999999761581421,0.0014165290973323862,1.0,9.999999747378752e-05
0.3696032641455531,0.8799999952316284,0.0005014988397306297,1.0,9.999999747378752e-05
0.3650311504956335,0.8799999952316284,0.00019917708996217698,1.0,9.999999747378752e-05
0.35732107288204135,0.8999999761581421,0.0004686649117502384,1.0,9.999999747378752e-05
0.3484825164079666,0.8999999761581421,0.0006782705808291212,1.0,9.999999747378752e-05
0.3453246390912682,0.8999999761581421,0.000586180982645601,1.0,9.999999747378752e-05
0.3423432797892019,0.8999999761581421,0.001365544882719405,1.0,9.999999747378752e-05
0.33893392391037197,0.8999999761581421,0.0007788496070133988,1.0,9.999999747378752e-05
0.3425181955099106,0.8999999761581421,0.000422306842301623,1.0,9.999999747378752e-05
0.34378731935285034,0.8999999761581421,0.00038813998144178187,1.0,9.999999747378752e-05
0.3429261261131614,0.8999999761581421,0.0002638919515447924,1.0,9.999999747378752e-05
0.3444349398603663,0.8999999761581421,0.0004464979159820359,1.0,9.999999747378752e-05
0.34650695440359414,0.8999999761581421,0.00025711364651215263,1.0,9.999999747378752e-05
0.3464749036822468,0.8999999761581421,0.0010099274211825104,1.0,9.999999747378752e-05
0.35217664029914886,0.8999999761581421,0.0012169292960606982,1.0,9.999999747378752e-05
0.3674838884267956,0.8999999761581421,0.0013453495739668142,1.0,9.999999747378752e-05
0.35614218791015445,0.8999999761581421,0.0008316604056744836,1.0,9.999999747378752e-05
0.34900332291144875,0.8999999761581421,0.00024051489235716873,1.0,9.999999747378752e-05
0.34590364082250746,0.8999999761581421,0.0006262722119572573,1.0,9.999999747378752e-05
0.3417287719901651,0.8999999761581421,0.0013624843122670427,1.0,9.999999747378752e-05
0.33666616659611465,0.8999999761581421,0.00048292368519469163,1.0,9.999999747378752e-05
0.3394917774014175,0.8999999761581421,0.00035042197996517646,1.0,9.999999747378752e-05
0.35124399247579274,0.8999999761581421,0.0005020922493713442,1.0,9.999999747378752e-05
0.3644118587020785,0.8999999761581421,0.0006592428682779428,1.0,9.999999747378752e-05
0.35738810028415174,0.8999999761581421,0.0005117548585985787,1.0,9.999999747378752e-05
0.3380722852423787,0.8999999761581421,0.0015176966393482872,1.0,9.999999747378752e-05
0.33184698931872847,0.8999999761581421,0.00028101342541049236,1.0,9.999999747378752e-05
0.3414189950097352,0.8999999761581421,0.0010619746513839345,1.0,9.999999747378752e-05
0.360096727614291,0.8999999761581421,0.00043360889321775176,1.0,9.999999747378752e-05
0.3612575599690899,0.8999999761581421,0.00033374409904354254,1.0,9.999999747378752e-05
0.36028220073785633,0.8999999761581421,0.0003223031118977815,1.0,9.999999747378752e-05
0.3575535299722105,0.8999999761581421,0.00013792435274808667,1.0,9.999999747378752e-05
0.3439392306376249,0.8999999761581421,0.0007170999408117496,1.0,9.999999747378752e-05
0.3380786306690425,0.8999999761581421,0.0004798555266461335,1.0,9.999999747378752e-05
0.3370700355386361,0.8999999761581421,0.0003586362217902206,1.0,9.999999747378752e-05
0.33749914101790635,0.8999999761581421,0.00030392844637390227,1.0,9.999999747378752e-05
0.33880609171465037,0.8999999761581421,0.00020704812341136857,1.0,9.999999747378752e-05
0.3433922791853547,0.8999999761581421,0.0004308296374802012,1.0,9.999999747378752e-05
0.3578942762338556,0.8999999761581421,0.0005822467715915991,1.0,9.999999747378752e-05
0.36609073355793953,0.8999999761581421,0.0004485546385694761,1.0,9.999999747378752e-05
0.36625223117880523,0.8999999761581421,0.00020890325686195865,1.0,9.999999747378752e-05
0.3649281989317387,0.8999999761581421,0.0004937379777402384,1.0,9.999999747378752e-05
0.3605310534592718,0.8999999761581421,0.0004995398776372895,1.0,9.999999747378752e-05
0.3618581751012243,0.8999999761581421,0.0007393555881208159,1.0,9.999999747378752e-05
0.24605872854590416,0.9200000166893005,0.006026455214305315,1.0,9.999999747378752e-05
0.2501700259745121,0.9200000166893005,0.0012103745073545724,1.0,9.999999747378752e-05
0.24316298998892308,0.8999999761581421,0.0007262303850438911,1.0,9.999999747378752e-05
0.25119906747713683,0.8999999761581421,0.000770740989537444,1.0,9.999999747378752e-05
0.27244929927401246,0.8999999761581421,0.00142854730002,1.0,9.999999747378752e-05
0.2867470205295831,0.8999999761581421,0.00037836443734704515,1.0,9.999999747378752e-05
0.2949453208129853,0.8999999761581421,0.0002803084495099029,1.0,9.999999747378752e-05
0.33205532387364656,0.9200000166893005,0.0014567026213626378,1.0,9.999999747378752e-05
0.35093340519815686,0.9200000166893005,0.0004478359303902835,1.0,9.999999747378752e-05
0.35673794962931427,0.9200000166893005,0.0004004631962743588,1.0,9.999999747378752e-05
0.3664698501583189,0.9200000166893005,0.0008335844642715529,1.0,9.999999747378752e-05
0.3752935130847618,0.9200000166893005,0.0012018985595204867,1.0,9.999999747378752e-05
0.3622007817961276,0.9200000166893005,0.0005365363162127323,1.0,9.999999747378752e-05
0.3526752882171422,0.8999999761581421,0.0006870513010653667,1.0,9.999999747378752e-05
0.3413540679495782,0.8999999761581421,0.0007375715977104846,1.0,9.999999747378752e-05
0.3396316228900105,0.8999999761581421,0.0003885562618961558,1.0,9.999999747378752e-05
0.35661626062355933,0.8999999761581421,0.0007492037460906431,1.0,9.999999747378752e-05
0.3852336702402681,0.9200000166893005,0.0007609458472870756,1.0,9.999999747378752e-05
0.40214771728497,0.9200000166893005,0.0007475528436771128,1.0,9.999999747378752e-05
0.4004117775242776,0.9200000166893005,0.0003621739881054964,1.0,9.999999747378752e-05
0.39717831294983624,0.9200000166893005,0.0003459346451563761,1.0,9.999999747378752e-05
0.39118773948866875,0.8999999761581421,0.0004063597705680877,1.0,9.999999747378752e-05
0.3845543813193217,0.8999999761581421,0.0004758258415677119,1.0,9.999999747378752e-05
0.38069358598440883,0.8999999761581421,0.00027556980203371497,1.0,9.999999747378752e-05
0.377427515364252,0.8999999761581421,0.00018758226324280258,1.0,9.999999747378752e-05
0.3745170739013702,0.8999999761581421,0.0005275199677271303,1.0,9.999999747378752e-05
0.3744606818538159,0.8999999761581421,0.00018548152074799874,1.0,9.999999747378752e-05
0.3690355679951608,0.8999999761581421,0.0007555923064501257,1.0,9.999999747378752e-05
0.359687778679654,0.8999999761581421,0.0062578593919170086,1.0,9.999999747378752e-05
0.3614691615570337,0.9200000166893005,0.0022709990920702695,1.0,9.999999747378752e-05
0.3817734024487436,0.8999999761581421,0.0005568481199588859,1.0,9.999999747378752e-05
0.39189376193098724,0.8999999761581421,0.000550049675439368,1.0,9.999999747378752e-05
0.3950001045130193,0.8999999761581421,0.000719557492993772,1.0,9.999999747378752e-05
0.41101083643734454,0.8799999952316284,0.0003248530010750983,1.0,9.999999747378752e-05
0.41527626452734695,0.8799999952316284,0.0001755388602759922,1.0,9.999999747378752e-05
0.40767167691374195,0.8799999952316284,0.0004245125837769592,1.0,9.999999747378752e-05
0.38742053421447054,0.8999999761581421,0.0007311882669455372,1.0,9.999999747378752e-05
0.3849129742360674,0.8999999761581421,0.0005496301042512642,1.0,9.999999747378752e-05
0.3895606104633771,0.8999999761581421,0.00043599509008345193,1.0,9.999999747378752e-05
0.3901534455828369,0.8999999761581421,0.00020291792970965615,1.0,9.999999747378752e-05
0.3839646441163495,0.8999999761581421,0.0002906242876633769,1.0,9.999999747378752e-05
0.3797406184487045,0.8999999761581421,0.0003241201768105384,1.0,9.999999747378752e-05
0.3845701725804247,0.8799999952316284,0.0009196912978950422,1.0,9.999999747378752e-05
0.3691371219814755,0.8999999761581421,0.0010899225322646088,1.0,9.999999747378752e-05
0.36943446805235,0.9200000166893005,0.0014958829571696697,1.0,9.999999747378752e-05
0.36503649821970613,0.8999999761581421,0.00032831767603056503,1.0,9.999999747378752e-05
0.360216275928542,0.8999999761581421,0.0008831967690639431,1.0,9.999999747378752e-05
0.35068272505886855,0.8999999761581421,0.0005070760778835392,1.0,9.999999747378752e-05
0.34708611520472915,0.8999999761581421,0.0002060720384179149,1.0,9.999999747378752e-05
0.3493980735307559,0.8999999761581421,0.00034146879479521883,1.0,9.999999747378752e-05
0.34765689380001275,0.8999999761581421,0.00034365394658379954,1.0,9.999999747378752e-05
0.3810329704312608,0.8799999952316284,0.002101657378443633,1.0,9.999999747378752e-05
0.43314025066792966,0.8799999952316284,0.0009840995702688816,1.0,9.999999747378752e-05
0.445199675206095,0.8799999952316284,0.00038095483105280434,1.0,9.999999747378752e-05
0.44755908434744923,0.8799999952316284,0.0006775635371013778,1.0,9.999999747378752e-05
0.43132807710208,0.8799999952316284,0.000178621374652721,1.0,9.999999747378752e-05
0.4128779251361266,0.8799999952316284,0.00026020490840892305,1.0,9.999999747378752e-05
0.3978351185447536,0.8799999952316284,0.00031947621355357116,1.0,9.999999747378752e-05
0.38733798440080136,0.8999999761581421,0.00023289893833862153,1.0,9.999999747378752e-05
0.36445910220500083,0.8999999761581421,0.0005592313504166668,1.0,9.999999747378752e-05
0.34890652310568837,0.8999999761581421,0.001214865882866434,1.0,9.999999747378752e-05
0.3505459664855152,0.8999999761581421,0.001472900312182901,1.0,9.999999747378752e-05
0.3829980253707618,0.8799999952316284,0.00042712865470093673,1.0,9.999999747378752e-05
0.3860736762173474,0.8799999952316284,0.0006501861345896032,1.0,9.999999747378752e-05
0.38223294056952,0.8999999761581421,0.0010372449454735034,1.0,9.999999747378752e-05
0.3767477401066571,0.8999999761581421,0.0002876145612390246,1.0,9.999999747378752e-05
0.3703295219456777,0.8999999761581421,0.0002645251723151887,1.0,9.999999747378752e-05
0.3662411774508655,0.8999999761581421,0.00022234627322177404,1.0,9.999999747378752e-05
0.36271133420523255,0.8999999761581421,0.0004431574860063847,1.0,9.999999747378752e-05
0.3671303516952321,0.8999999761581421,0.0010652571196260396,1.0,9.999999747378752e-05
0.42898650842253117,0.8999999761581421,0.0009385375276906415,1.0,9.999999747378752e-05
0.43158048049081116,0.8999999761581421,0.0007017824886133894,1.0,9.999999747378752e-05
0.41208047221880406,0.8999999761581421,0.00029640482862305364,1.0,9.999999747378752e-05
0.4138419867726043,0.8999999761581421,0.0008767446266574552,1.0,9.999999747378752e-05
0.4073097169632092,0.8799999952316284,0.000977041396254208,1.0,9.999999747378752e-05
0.38578565712086854,0.8999999761581421,0.00039070304555934856,1.0,9.999999747378752e-05
0.37344840101432053,0.8999999761581421,0.00019321616600791457,1.0,9.999999747378752e-05
0.35545332517940553,0.8999999761581421,0.0004970667978341226,1.0,9.999999747378752e-05
0.35000886316411195,0.8999999761581421,0.0001457932754419744,1.0,9.999999747378752e-05
0.34969789723400024,0.8999999761581421,0.00028753246551787014,1.0,9.999999747378752e-05
0.3517844273243099,0.8999999761581421,0.00037584861638606526,1.0,9.999999747378752e-05
0.34937363089993595,0.8999999761581421,0.00031037888802529776,1.0,9.999999747378752e-05
0.34716835981234906,0.9200000166893005,0.00024296819246956148,1.0,9.999999747378752e-05
0.3445837835315615,0.9200000166893005,0.00042888477037195116,1.0,9.999999747378752e-05
0.3475972713669762,0.8999999761581421,9.971557228709571e-05,1.0,9.999999747378752e-05
0.35313403541222216,0.8999999761581421,0.00018170099501730875,1.0,9.999999747378752e-05
0.3572244727052748,0.8999999761581421,0.00015038677356642437,1.0,9.999999747378752e-05
0.3537548787891865,0.8999999761581421,0.0013205281291448045,1.0,9.999999747378752e-05
0.35754737542010845,0.8999999761581421,0.00036527431657304985,1.0,9.999999747378752e-05
0.3604953008703887,0.8999999761581421,0.00019187612597306724,1.0,9.999999747378752e-05
0.3627998269861564,0.8999999761581421,0.00017619054779061116,1.0,9.999999747378752e-05
0.356692390772514,0.8999999761581421,0.00043190310570935254,1.0,9.999999747378752e-05
0.36074656723067167,0.8999999761581421,0.0002431077642540913,1.0,9.999999747378752e-05
0.36895691459067165,0.8999999761581421,0.00037212807237665404,1.0,9.999999747378752e-05
0.37491202040109783,0.8999999761581421,0.0001355502216028981,1.0,9.999999747378752e-05
0.3738914990797639,0.8999999761581421,0.00029247932507132647,1.0,9.999999747378752e-05
0.3813197826617397,0.8999999761581421,0.0006671831317362376,1.0,9.999999747378752e-05
0.39483823070768265,0.8799999952316284,0.0003438380703300936,1.0,9.999999747378752e-05
0.40146488358732313,0.8799999952316284,0.0007018925574811874,1.0,9.999999747378752e-05
0.402765387610998,0.8799999952316284,0.0005659573223965708,1.0,9.999999747378752e-05
0.4175432899966836,0.8799999952316284,0.0003737532661034493,1.0,9.999999747378752e-05
0.39642847364302725,0.8799999952316284,0.0012547472073492828,1.0,9.999999747378752e-05
0.3180938215460628,0.8999999761581421,0.00013514799247786867,1.0,9.999999747378752e-05
0.30721519887447357,0.8999999761581421,0.000607396823761519,1.0,9.999999747378752e-05
0.35053829501848666,0.8999999761581421,0.0010174618961173109,1.0,9.999999747378752e-05
0.3810374886961654,0.8799999952316284,0.0006527552432089578,1.0,9.999999747378752e-05
0.38909654137678445,0.8799999952316284,0.0001400542379997205,1.0,9.999999747378752e-05
0.3841689167311415,0.8799999952316284,0.00028954413573956117,1.0,9.999999747378752e-05
0.3731153873843141,0.8799999952316284,0.0001675333325692918,1.0,9.999999747378752e-05
0.36246255070436745,0.8999999761581421,0.000379844766939641,1.0,9.999999747378752e-05
0.35863163889152927,0.8999999761581421,0.00011502335910336114,1.0,9.999999747378752e-05
3.5950239658355714,0.6800000071525574,0.00760946514637908,1.0,9.999999747378752e-05
0.747428560629487,0.8600000143051147,0.024486533246817998,0.9900000095367432,9.999999747378752e-05
0.6348811669275165,0.8600000143051147,0.03206930562882917,0.9800000190734863,9.999999747378752e-05
0.4542557094246149,0.8999999761581421,0.0151130903246667,0.9900000095367432,9.999999747378752e-05
0.28493551835417746,0.9200000166893005,0.0017350122245261446,1.0,9.999999747378752e-05
0.33483861237764356,0.8399999737739563,0.0019108789012534544,1.0,9.999999747378752e-05
0.24209479466080666,0.9200000166893005,0.0025218022739863953,1.0,9.999999747378752e-05
0.2105033228173852,0.9399999976158142,0.0007421894290018827,1.0,9.999999747378752e-05
0.2093468602746725,0.9200000166893005,0.0019742919015698136,1.0,9.999999747378752e-05
0.2310757719911635,0.9200000166893005,0.0012089889707567636,1.0,9.999999747378752e-05
0.24985555210150778,0.9399999976158142,0.0002961967595183523,1.0,9.999999747378752e-05
0.26037793287541716,0.9399999976158142,0.0006748402760422323,1.0,9.999999747378752e-05
0.2698924072552472,0.9399999976158142,0.0007346631635300582,1.0,9.999999747378752e-05
0.2885331703699194,0.9399999976158142,0.0014130990821286105,1.0,9.999999747378752e-05
0.3025895694503561,0.9200000166893005,0.0007779579347698018,1.0,9.999999747378752e-05
0.3230431861593388,0.9200000166893005,0.0005194968822252122,1.0,9.999999747378752e-05
0.3437579211546108,0.8999999761581421,0.0027987270819721743,1.0,9.999999747378752e-05
0.38881037370301785,0.8999999761581421,0.0005202194777666591,1.0,9.999999747378752e-05
0.40116779613308606,0.8999999761581421,0.00035857660477631723,1.0,9.999999747378752e-05
0.41243803915567695,0.8999999761581421,0.0013781891437247395,1.0,9.999999747378752e-05
0.41323411343619226,0.8999999761581421,0.0005713918966648634,1.0,9.999999747378752e-05
0.3967317928792909,0.8999999761581421,0.0017054491670933202,1.0,9.999999747378752e-05
0.3882731534074992,0.8999999761581421,0.0008781203621765598,1.0,9.999999747378752e-05
0.3781708841677755,0.8999999761581421,0.0003120458779449109,1.0,9.999999747378752e-05
0.36750057425815613,0.8999999761581421,0.0002624170498165768,1.0,9.999999747378752e-05
0.35886033731512723,0.8999999761581421,0.00043115284643135965,1.0,9.999999747378752e-05
0.3502676474163309,0.9200000166893005,0.00036746441473951564,1.0,9.999999747378752e-05
0.34657695112982767,0.9200000166893005,0.0003281367840827443,1.0,9.999999747378752e-05
0.3173047931632027,0.9200000166893005,0.0013523189183615614,1.0,9.999999747378752e-05
0.2891573621891439,0.9399999976158142,0.0015812256937351777,1.0,9.999999747378752e-05
0.2713592462707311,0.9200000166893005,0.0002926102781202644,1.0,9.999999747378752e-05
0.2702787136193365,0.9200000166893005,0.000490550273025292,1.0,9.999999747378752e-05
0.27305996483191847,0.9200000166893005,0.0001994669270061422,1.0,9.999999747378752e-05
0.27890488267876207,0.9200000166893005,0.00040577246545581147,1.0,9.999999747378752e-05
0.28760870061814786,0.9399999976158142,0.00217449070623843,1.0,9.999999747378752e-05
0.2999213528353721,0.9200000166893005,0.0003199291615601396,1.0,9.999999747378752e-05
0.30462973911780866,0.9200000166893005,0.0004073918074936955,1.0,9.999999747378752e-05
0.30820135907270013,0.9200000166893005,0.00031683045599493196,1.0,9.999999747378752e-05
0.3107772785704583,0.9200000166893005,0.00036347361165098844,1.0,9.999999747378752e-05
0.3137007166398689,0.9200000166893005,0.0003164835885399953,1.0,9.999999747378752e-05
0.31623990535736085,0.9200000166893005,0.00034691580149228687,1.0,9.999999747378752e-05
0.3179122020024806,0.9200000166893005,9.880372126644943e-05,1.0,9.999999747378752e-05
0.3240027565159835,0.9200000166893005,0.0003937968383979751,1.0,9.999999747378752e-05
0.32841019199695437,0.9200000166893005,0.00030987755199021196,1.0,9.999999747378752e-05
0.33777114261174573,0.9200000166893005,0.0008459466844215058,1.0,9.999999747378752e-05
0.3426601791405119,0.9200000166893005,0.000801237652922282,1.0,9.999999747378752e-05
0.3411437809467316,0.9200000166893005,0.0003149436670355499,1.0,9.999999747378752e-05
0.34112766762264074,0.9200000166893005,0.00019501661754475207,1.0,9.999999747378752e-05
0.34008917917963116,0.9200000166893005,0.0006513742624520092,1.0,9.999999747378752e-05
0.3312821639352478,0.9200000166893005,0.00018929050838778494,1.0,9.999999747378752e-05
0.32939765360206363,0.9200000166893005,0.00020938919715263182,1.0,9.999999747378752e-05
0.3300640780478716,0.9200000166893005,0.0003159983953082701,1.0,9.999999747378752e-05
0.32820452756714075,0.9200000166893005,0.0002664167470356915,1.0,9.999999747378752e-05
0.33571627136552706,0.9200000166893005,0.0009790908654395026,1.0,9.999999747378752e-05
0.3416987707139924,0.9200000166893005,0.00029138614736439193,1.0,9.999999747378752e-05
0.3455105063621886,0.9200000166893005,0.00021566507257375633,1.0,9.999999747378752e-05
0.34656010263133796,0.9200000166893005,0.0003191248830262339,1.0,9.999999747378752e-05
0.3448390047182329,0.9200000166893005,0.0002492037685442483,1.0,9.999999747378752e-05
0.30291091008111837,0.9200000166893005,0.001920254545257194,1.0,9.999999747378752e-05
0.29860417852178217,0.9200000166893005,0.00031987708644010127,1.0,9.999999747378752e-05
0.31164748084265737,0.9200000166893005,0.0011277676590907503,1.0,9.999999747378752e-05
0.336367079266347,0.8999999761581421,0.00027585054594965187,1.0,9.999999747378752e-05
0.35087431230349464,0.8999999761581421,0.00031596627959515897,1.0,9.999999747378752e-05
0.3534701050142758,0.8999999761581421,0.00027139154117321594,1.0,9.999999747378752e-05
0.35588029243517666,0.8999999761581421,0.0006022928155289264,1.0,9.999999747378752e-05
0.3745485927211121,0.8999999761581421,0.0003081664181081578,1.0,9.999999747378752e-05
0.3718742314027622,0.8999999761581421,0.0009148049321083818,1.0,9.999999747378752e-05
0.3680405207909644,0.9200000166893005,0.0003131761777694919,1.0,9.999999747378752e-05
0.35612102586310357,0.9200000166893005,0.00043128941324539484,1.0,9.999999747378752e-05
0.3493109332048334,0.9200000166893005,0.0007255551678099437,1.0,9.999999747378752e-05
0.3417299098102376,0.9200000166893005,0.0005945089607848786,1.0,9.999999747378752e-05
0.334063784731552,0.8999999761581421,0.00015328375629906077,1.0,9.999999747378752e-05
0.3340239891433157,0.8999999761581421,0.00014487176704278682,1.0,9.999999747378752e-05
0.33821143975947054,0.8999999761581421,0.0002892079752200516,1.0,9.999999747378752e-05
0.3407531342236325,0.9200000166893005,0.00022110754835011904,1.0,9.999999747378752e-05
0.34264099118299784,0.9200000166893005,0.00012555095290736062,1.0,9.999999747378752e-05
0.3430233346298337,0.9200000166893005,0.00043136474887432995,1.0,9.999999747378752e-05
0.3409728451631963,0.8999999761581421,0.00010858090172405355,1.0,9.999999747378752e-05
0.34026731736958027,0.8999999761581421,0.00026246266315865796,1.0,9.999999747378752e-05
0.3415794552420266,0.8999999761581421,0.00016843751945998519,1.0,9.999999747378752e-05
0.3441809059935622,0.8999999761581421,0.0002817969172610901,1.0,9.999999747378752e-05
0.34643532359041274,0.8999999761581421,0.0002518515393603593,1.0,9.999999747378752e-05
0.34800692545250056,0.8999999761581421,0.000605624647505465,1.0,9.999999747378752e-05
0.35088967902120205,0.9200000166893005,0.00013019031339354115,1.0,9.999999747378752e-05
0.3530997853609733,0.9200000166893005,0.00025321182911284266,1.0,9.999999747378752e-05
0.35354029044974594,0.9200000166893005,0.0003104906627413584,1.0,9.999999747378752e-05
0.3537477384787053,0.9200000166893005,0.0001351761835394427,1.0,9.999999747378752e-05
0.36151621512835846,0.9200000166893005,0.0004982431390089914,1.0,9.999999747378752e-05
0.3684090689755976,0.9200000166893005,0.00018326805475226137,1.0,9.999999747378752e-05
0.3720674311392941,0.9200000166893005,0.0002469907252816483,1.0,9.999999747378752e-05
0.3709489671164192,0.9200000166893005,0.00026500894164200873,1.0,9.999999747378752e-05
0.370505845407024,0.9200000166893005,0.00037027316211606375,1.0,9.999999747378752e-05
0.37140561708947645,0.9200000166893005,0.0002416827459455817,1.0,9.999999747378752e-05
0.36929458054946734,0.9200000166893005,0.0001992681784031447,1.0,9.999999747378752e-05
0.36705109213944526,0.9200000166893005,0.0004841349302296294,1.0,9.999999747378752e-05
0.3640189304249361,0.9200000166893005,0.0001720351730909897,1.0,9.999999747378752e-05
0.3614397404831834,0.9200000166893005,0.0002288344854605384,1.0,9.999999747378752e-05
0.3614536051056348,0.9200000166893005,0.00021523778086702806,1.0,9.999999747378752e-05
0.36420912712346765,0.9200000166893005,0.0003110698962700553,1.0,9.999999747378752e-05
0.3734908961108886,0.9200000166893005,0.0005592301231445163,1.0,9.999999747378752e-05
0.3772062967531383,0.9200000166893005,0.0006249979929634719,1.0,9.999999747378752e-05
0.37681906825164335,0.9200000166893005,0.00017922101105796173,1.0,9.999999747378752e-05
0.38405029808636754,0.9200000166893005,0.0005639484517814708,1.0,9.999999747378752e-05
0.3833399956696667,0.8999999761581421,0.00011034207345801405,1.0,9.999999747378752e-05
0.37627882657106965,0.9200000166893005,0.0003730581594936666,1.0,9.999999747378752e-05
0.36585163476411253,0.9200000166893005,0.00019389855697227176,1.0,9.999999747378752e-05
0.3573234738199972,0.9200000166893005,0.0004465884070668835,1.0,9.999999747378752e-05
0.3574824219336733,0.9200000166893005,0.00031146672918112015,1.0,9.999999747378752e-05
0.3588483035680838,0.9200000166893005,0.00041215378605556906,1.0,9.999999747378752e-05
0.3553374782321043,0.8999999761581421,0.0001606733894732315,1.0,9.999999747378752e-05
0.3510582100832835,0.8999999761581421,0.0001547171925267321,1.0,9.999999747378752e-05
0.34932382967090236,0.8999999761581421,0.0001516311036539264,1.0,9.999999747378752e-05
0.3501497051212937,0.8999999761581421,0.00016192545663216152,1.0,9.999999747378752e-05
0.35051954092923554,0.8999999761581421,0.00047846328079685917,1.0,9.999999747378752e-05
0.35008295376319437,0.8999999761581421,0.00020802983417524956,1.0,9.999999747378752e-05
0.35581421613460407,0.8999999761581421,0.00025690198854135817,1.0,9.999999747378752e-05
0.3557450724416412,0.8999999761581421,0.00035553118686948437,1.0,9.999999747378752e-05
0.3579201683169231,0.8999999761581421,8.292206002806779e-05,1.0,9.999999747378752e-05
0.3599128944566473,0.8999999761581421,0.0001449860032153083,1.0,9.999999747378752e-05
0.3379624810419045,0.9200000166893005,0.001113887544033787,1.0,9.999999747378752e-05
0.31403543897904457,0.9200000166893005,0.0005626795078569558,1.0,9.999999747378752e-05
0.3074456955539063,0.9200000166893005,7.608011983393226e-05,1.0,9.999999747378752e-05
0.3092906162841246,0.9200000166893005,0.00022635768618783914,1.0,9.999999747378752e-05
0.3160615720087662,0.9200000166893005,0.0002016314563661581,1.0,9.999999747378752e-05
0.322061716276221,0.9200000166893005,7.278136727109085e-05,1.0,9.999999747378752e-05
0.3275261111324653,0.9200000166893005,0.00024836290285747966,1.0,9.999999747378752e-05
0.3338433686411008,0.8999999761581421,0.00017637540586292743,1.0,9.999999747378752e-05
0.3402736544026993,0.8999999761581421,0.00022553654162038583,1.0,9.999999747378752e-05
0.3451884491369128,0.8999999761581421,0.00034976030274265214,1.0,9.999999747378752e-05
0.3470106479944661,0.8999999761581421,5.0781589379766956e-05,1.0,9.999999747378752e-05
0.34952679874841125,0.8999999761581421,0.00024333306500921026,1.0,9.999999747378752e-05
0.3564820716390386,0.8999999761581421,0.00040179176248784644,1.0,9.999999747378752e-05
0.3577488206792623,0.8999999761581421,0.00010785700997075764,1.0,9.999999747378752e-05
0.36636076811701057,0.9200000166893005,0.00031077478161023464,1.0,9.999999747378752e-05
0.3687786975177005,0.9200000166893005,0.00038015847494534685,1.0,9.999999747378752e-05
0.3634630746208131,0.9200000166893005,0.00011723626339517068,1.0,9.999999747378752e-05
0.36082348657073454,0.9200000166893005,0.0004202576041279826,1.0,9.999999747378752e-05
0.37107326327823104,0.9200000166893005,0.0007179155029007234,1.0,9.999999747378752e-05
0.37360338917933406,0.9200000166893005,0.00011416469678806606,1.0,9.999999747378752e-05
0.33705311856465414,0.8999999761581421,0.0010699017222577823,1.0,9.999999747378752e-05
0.3373419323237613,0.8999999761581421,0.0006403895362382172,1.0,9.999999747378752e-05
0.3595251509686932,0.8999999761581421,0.0005112161961733364,1.0,9.999999747378752e-05
0.37462136114481837,0.8999999761581421,0.0001865546155386255,1.0,9.999999747378752e-05
0.37724860755261036,0.8999999761581421,0.00016270626874757,1.0,9.999999747378752e-05
0.3750234941835515,0.8999999761581421,0.0006770604481062037,1.0,9.999999747378752e-05
0.37185352003434674,0.8799999952316284,0.00012959248488186859,1.0,9.999999747378752e-05
0.3669393290183507,0.8799999952316284,0.00039999209438974505,1.0,9.999999747378752e-05
0.3560035437811166,0.8999999761581421,0.0002674657465831842,1.0,9.999999747378752e-05
0.343432920682244,0.8999999761581421,0.00038074836484156547,1.0,9.999999747378752e-05
0.3390283744665794,0.8999999761581421,0.00019486326345941052,1.0,9.999999747378752e-05
0.3399671875173226,0.8999999761581421,0.0001439903182472335,1.0,9.999999747378752e-05
0.33617855270858854,0.8999999761581421,0.00039599248375452587,1.0,9.999999747378752e-05
0.3398571039084345,0.8999999761581421,0.000237943853426259,1.0,9.999999747378752e-05
0.3466468941303901,0.8999999761581421,0.0004659146536141634,1.0,9.999999747378752e-05
0.35084909717552365,0.8999999761581421,0.00013016632437938823,1.0,9.999999747378752e-05
0.35045420908136293,0.8999999761581421,0.0003018521454578149,1.0,9.999999747378752e-05
0.3507035582559183,0.9200000166893005,0.00037343237454479095,1.0,9.999999747378752e-05
0.3503318310482427,0.9200000166893005,0.00012629280263354303,1.0,9.999999747378752e-05
0.3497962190071121,0.9200000166893005,0.00011062998546549352,1.0,9.999999747378752e-05
0.35300924883922563,0.9200000166893005,0.0001703961437669932,1.0,9.999999747378752e-05
0.3552048813318834,0.9200000166893005,0.000127174218869186,1.0,9.999999747378752e-05
0.36655944704543797,0.9200000166893005,0.0007709445348154986,1.0,9.999999747378752e-05
0.3956202191184275,0.8999999761581421,0.0001822929364607262,1.0,9.999999747378752e-05
0.3980490051675588,0.8999999761581421,0.00012174880102975295,1.0,9.999999747378752e-05
0.4014156049932353,0.8999999761581421,0.000276450492310687,1.0,9.999999747378752e-05
0.39664724707836285,0.8999999761581421,0.00019031263946089894,1.0,9.999999747378752e-05
0.39052760530030356,0.8999999761581421,5.728359737986466e-05,1.0,9.999999747378752e-05
0.3844882368808612,0.8999999761581421,0.00013932645597378724,1.0,9.999999747378752e-05
0.38061844306066633,0.8999999761581421,6.981816222833004e-05,1.0,9.999999747378752e-05
0.38183488536160437,0.8999999761581421,0.00017684869635559153,1.0,9.999999747378752e-05
0.3785069313715212,0.8999999761581421,0.0003700843155456823,1.0,9.999999747378752e-05
0.3774970536469482,0.8999999761581421,9.031121744556004e-05,1.0,9.999999747378752e-05
0.37503243118990215,0.8999999761581421,0.0001378621607727837,1.0,9.999999747378752e-05
0.36899741236120465,0.9200000166893005,0.00015219402048387564,1.0,9.999999747378752e-05
0.3341723540332168,0.9200000166893005,0.0003984493323514471,1.0,9.999999747378752e-05
0.3293642060016282,0.9200000166893005,0.00016997314487525727,1.0,9.999999747378752e-05
0.32929507702356203,0.9200000166893005,0.00023803746971680085,1.0,9.999999747378752e-05
0.33048586363438515,0.9200000166893005,0.00011761858713725815,1.0,9.999999747378752e-05
0.33889792669797314,0.8999999761581421,0.00045333750458667057,1.0,9.999999747378752e-05
0.3470376927987672,0.8999999761581421,8.484363006573403e-05,1.0,9.999999747378752e-05
0.35283078702632337,0.8999999761581421,0.00029827998514520004,1.0,9.999999747378752e-05
0.35559405826497825,0.8999999761581421,0.00011608898457780015,1.0,9.999999747378752e-05
0.3625990015338175,0.8999999761581421,0.0002797254084725864,1.0,9.999999747378752e-05
0.36860952988499773,0.9200000166893005,0.0002459678038576385,1.0,9.999999747378752e-05
0.371722668397706,0.8999999761581421,0.00022741235607099953,1.0,9.999999747378752e-05
0.37794216484762727,0.8999999761581421,0.00040285326613229697,1.0,9.999999747378752e-05
0.38662913674488664,0.8999999761581421,0.00016308233371091773,1.0,9.999999747378752e-05
0.38007067784201354,0.8999999761581421,0.0003549822886270704,1.0,9.999999747378752e-05
0.4088778870180249,0.8999999761581421,0.0006195958903845167,1.0,9.999999747378752e-05
0.4139765559695661,0.8999999761581421,7.59450604164158e-05,1.0,9.999999747378752e-05
0.4057126250001602,0.8999999761581421,0.00012009914953523549,1.0,9.999999747378752e-05
0.39739646171219645,0.8999999761581421,0.00038980118624749595,1.0,9.999999747378752e-05
0.3828923494438641,0.8999999761581421,0.00023328819333983118,1.0,9.999999747378752e-05
0.37591143332538196,0.8799999952316284,8.662019063194748e-05,1.0,9.999999747378752e-05
0.38348757798084987,0.8999999761581421,0.0005851332776728668,1.0,9.999999747378752e-05
0.38304217502009125,0.8999999761581421,0.00015035075302876065,1.0,9.999999747378752e-05
0.38299566044006494,0.8999999761581421,0.0001928571546159219,1.0,9.999999747378752e-05
0.38259436939843,0.8999999761581421,0.0001893819684482878,1.0,9.999999747378752e-05
0.3828919515712187,0.8799999952316284,8.790974898147397e-05,1.0,9.999999747378752e-05
0.3783340194728225,0.8799999952316284,0.00014275504772740533,1.0,9.999999747378752e-05
0.3754140886361711,0.8799999952316284,0.00012964088964508846,1.0,9.999999747378752e-05
0.37549200520734305,0.8799999952316284,0.00011259733655606396,1.0,9.999999747378752e-05
0.37450417443178596,0.8799999952316284,0.00018409504282317356,1.0,9.999999747378752e-05
0.3740733945160173,0.8799999952316284,0.0003259871142290649,1.0,9.999999747378752e-05
0.3787390481564216,0.8799999952316284,0.0005433507702036877,1.0,9.999999747378752e-05
0.3786611439427361,0.8799999952316284,0.00018327167745155749,1.0,9.999999747378752e-05
0.3754512926796451,0.8799999952316284,0.00017368462067679502,1.0,9.999999747378752e-05
0.3740630640182644,0.8799999952316284,0.00011273499731032644,1.0,9.999999747378752e-05
0.37512427794281394,0.8799999952316284,0.00017005404442897997,1.0,9.999999747378752e-05
0.37746391945984215,0.8799999952316284,0.0001744937364492216,1.0,9.999999747378752e-05
0.35689339828677474,0.8999999761581421,0.0004096266720807762,1.0,9.999999747378752e-05
0.3424704086268321,0.8999999761581421,8.533633299521171e-05,1.0,9.999999747378752e-05
0.3494655211223289,0.8999999761581421,0.0002935822782092146,1.0,9.999999747378752e-05
0.35330384843982754,0.8999999761581421,0.00020841751629632199,1.0,9.999999747378752e-05
0.36813264318043365,0.8999999761581421,0.0004169184721831698,1.0,9.999999747378752e-05
0.37344878462608905,0.8999999761581421,0.00011835555433208356,1.0,9.999999747378752e-05
0.3800841203890741,0.8999999761581421,0.00015312531832023524,1.0,9.999999747378752e-05
0.38992365017766134,0.8999999761581421,0.0002863405563402921,1.0,9.999999747378752e-05
0.3894238151842728,0.8999999761581421,0.0001455844354495639,1.0,9.999999747378752e-05
0.3879575822735205,0.8999999761581421,7.458571453753394e-05,1.0,9.999999747378752e-05
0.3411988936830312,0.9200000166893005,0.0004383629118819954,1.0,9.999999747378752e-05
0.3273746254038997,0.9200000166893005,0.00012610075282282196,1.0,9.999999747378752e-05
0.3470544117153622,0.9200000166893005,0.0007759286618238548,1.0,9.999999747378752e-05
0.3712307090987451,0.8999999761581421,0.00024028889965848065,1.0,9.999999747378752e-05
0.37333164087031034,0.8999999761581421,8.638947865620139e-05,1.0,9.999999747378752e-05
0.3939746671472676,0.8999999761581421,0.0006662593508735881,1.0,9.999999747378752e-05
0.36963366898708044,0.8999999761581421,0.0005924613315073657,1.0,9.999999747378752e-05
0.34317280929535626,0.8999999761581421,0.0001689105214609299,1.0,9.999999747378752e-05
0.33828257452696564,0.8999999761581421,0.0002257487454699003,1.0,9.999999747378752e-05
0.3467459525563754,0.8999999761581421,0.00018460910068824888,1.0,9.999999747378752e-05
0.3620859549730085,0.9200000166893005,0.0005102845989313209,1.0,9.999999747378752e-05
0.37511620807927104,0.8999999761581421,0.0005636275378492428,1.0,9.999999747378752e-05
0.40426884181797507,0.8999999761581421,0.0019472905743896263,1.0,9.999999747378752e-05
0.41536036304896695,0.8999999761581421,0.0006552965123773902,1.0,9.999999747378752e-05
0.4005772092496045,0.8999999761581421,0.0006166562729049474,1.0,9.999999747378752e-05
0.39237591114360837,0.8999999761581421,0.00013072841575194615,1.0,9.999999747378752e-05
0.39165648056659846,0.9200000166893005,0.00023213574713736306,1.0,9.999999747378752e-05
0.387987949186936,0.9200000166893005,0.00017471801584179047,1.0,9.999999747378752e-05
0.3866306387120858,0.9200000166893005,9.279991591029101e-05,1.0,9.999999747378752e-05
0.3796940593631007,0.9200000166893005,0.00019752853258978576,1.0,9.999999747378752e-05
0.3803448586957529,0.9200000166893005,0.0001913618019898422,1.0,9.999999747378752e-05
0.3833632844733074,0.9200000166893005,8.468610249110498e-05,1.0,9.999999747378752e-05
0.3837963530095294,0.8999999761581421,7.919736872281646e-05,1.0,9.999999747378752e-05
0.38229637648910286,0.9200000166893005,0.0007702864324528492,1.0,9.999999747378752e-05
0.35462088076164944,0.9200000166893005,0.00020844150267294027,1.0,9.999999747378752e-05
0.3486256096512079,0.9200000166893005,0.00018577095761429518,1.0,9.999999747378752e-05
0.35281209138920533,0.8999999761581421,0.00021512251187232322,1.0,9.999999747378752e-05
0.3605048553319648,0.8999999761581421,0.00019796329725068061,1.0,9.999999747378752e-05
0.3740194704849273,0.8999999761581421,0.0003694154253025772,1.0,9.999999747378752e-05
0.3840627118712291,0.8999999761581421,0.00026005851059380803,1.0,9.999999747378752e-05
0.3832210348220542,0.8999999761581421,0.000117198696534615,1.0,9.999999747378752e-05
0.38209965273272245,0.8999999761581421,0.00020868712144874734,1.0,9.999999747378752e-05
0.37883945524226875,0.8999999761581421,0.00012867857894889313,1.0,9.999999747378752e-05
0.3792478912859224,0.8999999761581421,0.00017592588083061855,1.0,9.999999747378752e-05
0.3782575689954683,0.8999999761581421,0.00017696973955025897,1.0,9.999999747378752e-05
0.37593482793308797,0.8999999761581421,0.000269390020184801,1.0,9.999999747378752e-05
0.37319907047785816,0.8999999761581421,0.00022759240200684872,1.0,9.999999747378752e-05
0.37067742268554865,0.8999999761581421,0.00013761424597760196,1.0,9.999999747378752e-05
0.37163960295729337,0.8999999761581421,0.00013598810364783275,1.0,9.999999747378752e-05
0.3762792679248378,0.8999999761581421,7.277648819581373e-05,1.0,9.999999747378752e-05
0.37801937337499114,0.8999999761581421,0.00013754156570939814,1.0,9.999999747378752e-05
0.38195001636631787,0.8999999761581421,0.00027564663942030164,1.0,9.999999747378752e-05
0.3919673633063212,0.8799999952316284,0.00012248790626472327,1.0,9.999999747378752e-05
0.40272758974460887,0.8799999952316284,0.00014379733638634207,1.0,9.999999747378752e-05
0.40540037078317254,0.8799999952316284,8.99428739103314e-05,1.0,9.999999747378752e-05
0.3707953416625969,0.8999999761581421,0.0002362961807193642,1.0,9.999999747378752e-05
0.36015524629037826,0.8999999761581421,0.00042840491914830636,1.0,9.999999747378752e-05
0.36150315826525914,0.8999999761581421,0.000546058508734859,1.0,9.999999747378752e-05
0.3568944217870012,0.8999999761581421,0.00014773717175557976,1.0,9.999999747378752e-05
0.35701076437253504,0.8999999761581421,0.00017266849436055055,1.0,9.999999747378752e-05
0.3618386670248583,0.8999999761581421,0.00013719664129894227,1.0,9.999999747378752e-05
0.34117786404676737,0.9200000166893005,0.0014582879844965645,1.0,9.999999747378752e-05
0.35040052169933916,0.9200000166893005,0.00013207876072556245,1.0,9.999999747378752e-05
0.34538785042241216,0.9200000166893005,0.00021893049979553324,1.0,9.999999747378752e-05
0.33791456525214014,0.9200000166893005,0.0006894745891258935,1.0,9.999999747378752e-05
0.4800985774258152,0.8999999761581421,0.001217427978735941,1.0,9.999999747378752e-05
0.6810660988092423,0.8799999952316284,0.00022703576851199614,1.0,9.999999747378752e-05
0.6806943962350488,0.8799999952316284,0.0003465419130407099,1.0,9.999999747378752e-05
0.5711359113454819,0.8999999761581421,0.00021952598544885404,1.0,9.999999747378752e-05
0.5153981929644942,0.8999999761581421,0.00010992515381076373,1.0,9.999999747378752e-05
0.48075871805194764,0.8999999761581421,5.573430153162917e-05,1.0,9.999999747378752e-05
0.4502905257628299,0.8999999761581421,0.00014503895217785612,1.0,9.999999747378752e-05
0.42774223105516285,0.8999999761581421,0.00018309355345991207,1.0,9.999999747378752e-05
0.4067735286720563,0.8999999761581421,0.00015000896783021745,1.0,9.999999747378752e-05
0.3988915243302472,0.8999999761581421,0.00026121776336367474,1.0,9.999999747378752e-05
0.3941390718740877,0.8999999761581421,0.0001722120781778358,1.0,9.999999747378752e-05
0.37958993670763447,0.8999999761581421,0.00036270879390940534,1.0,9.999999747378752e-05
0.3723782896879129,0.8999999761581421,0.00010509258090678486,1.0,9.999999747378752e-05
0.3723452116828412,0.8999999761581421,8.333141686307499e-05,1.0,9.999999747378752e-05
0.37455147929722443,0.8999999761581421,0.00044831089271610833,1.0,9.999999747378752e-05
0.36638154190732164,0.8999999761581421,0.00046671355858052266,1.0,9.999999747378752e-05
0.36156844439683483,0.8999999761581421,0.00014679369978694013,1.0,9.999999747378752e-05
0.35637159969192,0.8999999761581421,0.00013019103207625448,1.0,9.999999747378752e-05
0.3580587993725203,0.8999999761581421,0.00011718472446773376,1.0,9.999999747378752e-05
0.36399034298956395,0.8999999761581421,0.00010255269335175398,1.0,9.999999747378752e-05
0.36870083735557274,0.8999999761581421,9.408108394381998e-05,1.0,9.999999747378752e-05
0.37102505648508666,0.8999999761581421,0.00010111901447089622,1.0,9.999999747378752e-05
0.3716427517472766,0.8999999761581421,4.998261592845665e-05,1.0,9.999999747378752e-05
0.42776459048036486,0.8799999952316284,0.0005201627089263638,1.0,9.999999747378752e-05
0.45179170517949385,0.8999999761581421,9.82332392140961e-05,1.0,9.999999747378752e-05
0.45128369845915584,0.8799999952316284,0.00020127180455347115,1.0,9.999999747378752e-05
0.4465187046909705,0.8799999952316284,7.269515281222993e-05,1.0,9.999999747378752e-05
0.4387074751080945,0.8799999952316284,0.00013581261191575322,1.0,9.999999747378752e-05
0.4381548128905706,0.8799999952316284,0.0002232986217677535,1.0,9.999999747378752e-05
0.3763236431230325,0.8999999761581421,0.0002748783960669243,1.0,9.999999747378752e-05
0.35967826256528496,0.8999999761581421,0.00014535983682435473,1.0,9.999999747378752e-05
0.36300891743740066,0.8999999761581421,0.00013513708145183046,1.0,9.999999747378752e-05
0.4012308628123719,0.8799999952316284,0.00042317563747928943,1.0,9.999999747378752e-05
0.4233755864552222,0.8999999761581421,0.00011407612641960441,1.0,9.999999747378752e-05
0.8018020009621978,0.8799999952316284,0.008012287997553358,1.0,9.999999747378752e-05
0.554828268289566,0.8799999952316284,0.01704891910776496,0.9900000095367432,9.999999747378752e-05
0.4094106487929821,0.8999999761581421,0.03740225359797478,0.9900000095367432,9.999999747378752e-05
0.48269425258040427,0.8999999761581421,0.002815806020225864,1.0,9.999999747378752e-05
0.3559294615406543,0.8999999761581421,0.02450686988304369,0.9900000095367432,9.999999747378752e-05
0.5064969215542078,0.9200000166893005,0.002373241983150365,1.0,9.999999747378752e-05
0.3986078794347122,0.9200000166893005,0.016090110276127233,1.0,9.999999747378752e-05
0.2812178406165913,0.9200000166893005,0.006173548121296335,1.0,9.999999747378752e-05
0.261517216777429,0.9200000166893005,0.010974755794450175,1.0,9.999999747378752e-05
0.28008607611991465,0.8999999761581421,0.0025200122199748876,1.0,9.999999747378752e-05
0.3063055009581149,0.9200000166893005,0.0010383354747318663,1.0,9.999999747378752e-05
0.3234691934660077,0.9200000166893005,0.0012547828213428148,1.0,9.999999747378752e-05
0.33944694241508844,0.9200000166893005,0.0009004223073134198,1.0,9.999999747378752e-05
0.3545493450947106,0.9200000166893005,0.0008862733579007908,1.0,9.999999747378752e-05
0.36636762069538237,0.9200000166893005,0.0004955975819029845,1.0,9.999999747378752e-05
0.3745490817353129,0.9200000166893005,0.0003372153289092239,1.0,9.999999747378752e-05
0.3831153613515198,0.9200000166893005,0.0005732171775889583,1.0,9.999999747378752e-05
0.3873569738119841,0.9200000166893005,0.0003782489067816641,1.0,9.999999747378752e-05
0.38891782430000604,0.9200000166893005,0.0015511470839555841,1.0,9.999999747378752e-05
0.39058379502967,0.9200000166893005,0.0006006639436236582,1.0,9.999999747378752e-05
0.39237721981480717,0.9200000166893005,0.00033099332795245574,1.0,9.999999747378752e-05
0.38801374966278673,0.9200000166893005,0.000209021323826164,1.0,9.999999747378752e-05
0.3884097520727664,0.9200000166893005,0.000698797584118438,1.0,9.999999747378752e-05
0.39966510618105533,0.9200000166893005,0.00046200516990211324,1.0,9.999999747378752e-05
0.4057505951263011,0.9200000166893005,0.002062426741758827,1.0,9.999999747378752e-05
0.38933338234201076,0.9200000166893005,0.0021219850623310776,1.0,9.999999747378752e-05
0.36893580718897284,0.9200000166893005,0.001313522482996632,1.0,9.999999747378752e-05
0.36176696252077817,0.8999999761581421,0.00039938648842507973,1.0,9.999999747378752e-05
0.3602679811883718,0.8999999761581421,0.00034032987568934916,1.0,9.999999747378752e-05
0.3659115123096853,0.8999999761581421,0.001424995746856439,1.0,9.999999747378752e-05
0.37107064267620443,0.8999999761581421,0.00034285137408005537,1.0,9.999999747378752e-05
0.375400355970487,0.9200000166893005,0.0003253775696066441,1.0,9.999999747378752e-05
0.3793666801881045,0.9200000166893005,0.0003182172426022589,1.0,9.999999747378752e-05
0.3813355967402458,0.9200000166893005,0.00027739465767808726,1.0,9.999999747378752e-05
0.3838531295303255,0.9200000166893005,0.0004528665274847299,1.0,9.999999747378752e-05
0.38863187925890086,0.9200000166893005,0.0003440944536123425,1.0,9.999999747378752e-05
0.38908380549401045,0.9200000166893005,0.00015951784589560703,1.0,9.999999747378752e-05
0.3892055691219866,0.9200000166893005,0.00026179176711593755,1.0,9.999999747378752e-05
0.3900941875297576,0.9200000166893005,0.00013354619823076065,1.0,9.999999747378752e-05
0.3902170991525054,0.9200000166893005,0.00017961231314984617,1.0,9.999999747378752e-05
0.38901522089727225,0.9200000166893005,0.00011341156241542193,1.0,9.999999747378752e-05
0.3878162727225572,0.9200000166893005,0.0003178008697432233,1.0,9.999999747378752e-05
0.38041794397868217,0.9200000166893005,0.0006274066825426416,1.0,9.999999747378752e-05
0.3760195320472121,0.8999999761581421,0.00032053970699053025,1.0,9.999999747378752e-05
0.3748858332633972,0.8999999761581421,0.0005080702416307758,1.0,9.999999747378752e-05
0.3781613778788596,0.8999999761581421,0.00015411476961162406,1.0,9.999999747378752e-05
0.37770663779228925,0.8999999761581421,0.0002773928106762469,1.0,9.999999747378752e-05
0.3754792475607246,0.8999999761581421,0.0012553288943308871,1.0,9.999999747378752e-05
0.35325144943781195,0.8999999761581421,0.00015339535993916798,1.0,9.999999747378752e-05
0.3477424920303747,0.8999999761581421,0.00011359291274857242,1.0,9.999999747378752e-05
0.3499851817730814,0.8999999761581421,0.00030095017209532673,1.0,9.999999747378752e-05
0.3548017105087638,0.8999999761581421,0.0003400534886168316,1.0,9.999999747378752e-05
0.35928919264115394,0.8999999761581421,0.0002091073938572663,1.0,9.999999747378752e-05
0.36401966200210156,0.8999999761581421,0.00033485256826679686,1.0,9.999999747378752e-05
0.3672916551120579,0.8999999761581421,0.0002107927437464241,1.0,9.999999747378752e-05
0.3703279237262905,0.8999999761581421,0.0004206713314488297,1.0,9.999999747378752e-05
0.37200522134080527,0.8999999761581421,0.00016803345915832323,1.0,9.999999747378752e-05
0.3736579968594015,0.8999999761581421,0.00027887183114216896,1.0,9.999999747378752e-05
0.3747906863223761,0.8999999761581421,0.0001620935017854208,1.0,9.999999747378752e-05
0.3723930984735489,0.8999999761581421,0.00046653445115225624,1.0,9.999999747378752e-05
0.3985577119980007,0.9200000166893005,0.00170231931251692,1.0,9.999999747378752e-05
0.41663971045054493,0.9200000166893005,0.0003438079187617404,1.0,9.999999747378752e-05
0.4202965011820197,0.9200000166893005,0.00025093470721913034,1.0,9.999999747378752e-05
0.42055046651512384,0.9200000166893005,0.00016554901940253331,1.0,9.999999747378752e-05
0.4162301344331354,0.9200000166893005,0.0002564738251749077,1.0,9.999999747378752e-05
0.4108024523127824,0.9200000166893005,0.00025818852491283907,1.0,9.999999747378752e-05
0.4045968824299052,0.9200000166893005,0.0002399282785518153,1.0,9.999999747378752e-05
0.40017597100231794,0.9200000166893005,7.724214119662066e-05,1.0,9.999999747378752e-05
0.3874225339153782,0.8999999761581421,0.00037931459846731743,1.0,9.999999747378752e-05
0.38022964107804,0.8999999761581421,0.0008930086767577449,1.0,9.999999747378752e-05
0.37362543302588164,0.8999999761581421,0.00012888721030321904,1.0,9.999999747378752e-05
0.3704836979275569,0.8999999761581421,0.00019141967022733296,1.0,9.999999747378752e-05
0.37223870747257026,0.8999999761581421,0.0007471906075807056,1.0,9.999999747378752e-05
0.37317976644262674,0.8999999761581421,8.841485960147111e-05,1.0,9.999999747378752e-05
0.37234005709178747,0.8999999761581421,0.00031728987123642584,1.0,9.999999747378752e-05
0.36864429540000854,0.8999999761581421,0.00045346747392613904,1.0,9.999999747378752e-05
0.36683015832677485,0.8999999761581421,0.0004890124097983062,1.0,9.999999747378752e-05
0.36560436855070294,0.8999999761581421,0.00038314048670144983,1.0,9.999999747378752e-05
0.3641819988144562,0.8999999761581421,0.0007832822595446487,1.0,9.999999747378752e-05
0.36137923316564413,0.8999999761581421,0.0004526599976088619,1.0,9.999999747378752e-05
0.36156755266711116,0.8999999761581421,0.0002253616421512561,1.0,9.999999747378752e-05
0.37284490894526245,0.9200000166893005,0.0013304700907610823,1.0,9.999999747378752e-05
0.38376974663697183,0.9200000166893005,8.532164356438443e-05,1.0,9.999999747378752e-05
0.3857023367425427,0.9200000166893005,0.00011371251384844072,1.0,9.999999747378752e-05
0.38019482388626785,0.9200000166893005,0.0007346522439547698,1.0,9.999999747378752e-05
0.3755647348007187,0.9200000166893005,0.00010404335316707147,1.0,9.999999747378752e-05
0.36359631014056504,0.8999999761581421,0.0006159409886095091,1.0,9.999999747378752e-05
0.3622858529095538,0.8999999761581421,0.0009853329698671586,1.0,9.999999747378752e-05
0.3700883890851401,0.9200000166893005,0.00027577905275393276,1.0,9.999999747378752e-05
0.3766322358860634,0.9200000166893005,0.0012058403837727383,1.0,9.999999747378752e-05
0.3860428878106177,0.9200000166893005,0.00025942501742974854,1.0,9.999999747378752e-05
0.3791911715175956,0.9200000166893005,0.0006875795301311882,1.0,9.999999747378752e-05
0.3737771577201784,0.8999999761581421,0.00013007591624045745,1.0,9.999999747378752e-05
0.37135398087557403,0.8999999761581421,9.329808235634119e-05,1.0,9.999999747378752e-05
0.37233621906489134,0.8999999761581421,0.00027304999020998365,1.0,9.999999747378752e-05
0.3749662504531443,0.8999999761581421,0.0005658178019075421,1.0,9.999999747378752e-05
0.3751708599040285,0.9200000166893005,0.0005662641908202204,1.0,9.999999747378752e-05
0.36953456564806403,0.8999999761581421,0.00026893069725701934,1.0,9.999999747378752e-05
0.37019103043712676,0.8999999761581421,0.0004187221949905506,1.0,9.999999747378752e-05
0.3717207485460676,0.8999999761581421,0.00015828571381462097,1.0,9.999999747378752e-05
0.3623797236941755,0.8999999761581421,0.0009537792135233758,1.0,9.999999747378752e-05
0.35556980008259415,0.8999999761581421,0.00011724537980626338,1.0,9.999999747378752e-05
0.3546146244625561,0.8999999761581421,8.080261977738701e-05,1.0,9.999999747378752e-05
0.3611929300939664,0.8999999761581421,0.0009556583678204334,1.0,9.999999747378752e-05
0.3919384452863596,0.9200000166893005,0.00016505987641721732,1.0,9.999999747378752e-05
0.40382020238321276,0.9200000166893005,0.00016259225576504833,1.0,9.999999747378752e-05
0.4055455766967498,0.9200000166893005,0.00041302450044895523,1.0,9.999999747378752e-05
0.40238677833694964,0.9200000166893005,0.0005708386140213407,1.0,9.999999747378752e-05
0.3987760358257219,0.9200000166893005,0.0009545637491100934,1.0,9.999999747378752e-05
0.3936657740036026,0.9200000166893005,0.00046741212709093815,1.0,9.999999747378752e-05
0.39047146891243756,0.9200000166893005,0.0002185795439800131,1.0,9.999999747378752e-05
0.3894890674971975,0.9200000166893005,0.0002941195526545926,1.0,9.999999747378752e-05
0.38549869919661434,0.9200000166893005,0.0001530106099380646,1.0,9.999999747378752e-05
0.38365982415853067,0.9200000166893005,9.831031584326411e-05,1.0,9.999999747378752e-05
0.38190551892621444,0.9200000166893005,8.521813997504068e-05,1.0,9.999999747378752e-05
0.38173030436737465,0.9200000166893005,0.0002647300607350189,1.0,9.999999747378752e-05
0.38194187541957947,0.8999999761581421,0.00014088822863413952,1.0,9.999999747378752e-05
0.3804810497793369,0.8999999761581421,0.0003738237370271236,1.0,9.999999747378752e-05
0.3878858675714582,0.9200000166893005,0.0001862408134911675,1.0,9.999999747378752e-05
0.3896274870843627,0.9200000166893005,5.449849741125945e-05,1.0,9.999999747378752e-05
0.3893979117041454,0.8999999761581421,0.00017645215793891112,1.0,9.999999747378752e-05
0.40211037136614325,0.9200000166893005,0.0005829937572343624,1.0,9.999999747378752e-05
0.40364494238747284,0.9200000166893005,6.924507033545524e-05,1.0,9.999999747378752e-05
0.40258821460884064,0.9200000166893005,0.00021160868200240657,1.0,9.999999747378752e-05
0.40092217253986745,0.9200000166893005,0.0003769724346057046,1.0,9.999999747378752e-05
0.3979707371676341,0.8999999761581421,0.00010756161136669107,1.0,9.999999747378752e-05
0.3960078707197681,0.8999999761581421,0.00016453763701065326,1.0,9.999999747378752e-05
0.3559109621681273,0.9200000166893005,0.004200105911149876,1.0,9.999999747378752e-05
0.3654218236682937,0.9200000166893005,0.0011431808976340107,1.0,9.999999747378752e-05
0.3885417997604236,0.9200000166893005,0.00018165424498874926,1.0,9.999999747378752e-05
0.3884650748688728,0.9200000166893005,0.0009290911213611253,1.0,9.999999747378752e-05
0.3750882499618456,0.9200000166893005,0.0001094079765607603,1.0,9.999999747378752e-05
0.3710750141413882,0.9200000166893005,0.0003342527521454031,1.0,9.999999747378752e-05
0.3692800431977957,0.9200000166893005,0.00015681232052884299,1.0,9.999999747378752e-05
0.3675577870802954,0.9200000166893005,0.00019354355608811603,1.0,9.999999747378752e-05
0.36949854986742137,0.9200000166893005,0.0002577160534201539,1.0,9.999999747378752e-05
0.3592896303394809,0.8999999761581421,0.0007101522041921271,1.0,9.999999747378752e-05
0.35279052492696794,0.8999999761581421,0.0001461383879359346,1.0,9.999999747378752e-05
0.35128784386906775,0.8999999761581421,0.00015911284808680647,1.0,9.999999747378752e-05
0.35093182818964125,0.8999999761581421,0.00015189538407867076,1.0,9.999999747378752e-05
0.35141025616321714,0.8999999761581421,5.832872502651298e-05,1.0,9.999999747378752e-05
0.35257610713597387,0.8999999761581421,0.00014418649834624375,1.0,9.999999747378752e-05
0.3528559167170897,0.8999999761581421,0.00042939319246215746,1.0,9.999999747378752e-05
0.3524708011886105,0.8999999761581421,0.00017025742345140317,1.0,9.999999747378752e-05
0.35214286313857884,0.8999999761581421,6.324554633465595e-05,1.0,9.999999747378752e-05
0.35309184892103074,0.8999999761581421,8.280632719106506e-05,1.0,9.999999747378752e-05
0.3539693795610219,0.8999999761581421,8.998040048027178e-05,1.0,9.999999747378752e-05
0.3562715042382479,0.8999999761581421,0.00010064690341096138,1.0,9.999999747378752e-05
0.35592558635398747,0.8999999761581421,9.973028154490749e-05,1.0,9.999999747378752e-05
0.356519112281967,0.8999999761581421,0.00018616657853272046,1.0,9.999999747378752e-05
0.3570380887831561,0.8999999761581421,8.463971353194211e-05,1.0,9.999999747378752e-05
0.35806750420015304,0.8999999761581421,7.037206596578471e-05,1.0,9.999999747378752e-05
0.3585220110253431,0.8999999761581421,7.109344724085532e-05,1.0,9.999999747378752e-05
0.35844042914686725,0.8999999761581421,0.0001978654763661325,1.0,9.999999747378752e-05
0.3584027279401198,0.8999999761581421,0.00015892982646619201,1.0,9.999999747378752e-05
0.35876622491050514,0.8999999761581421,0.00013414194545475767,1.0,9.999999747378752e-05
0.3592603250290267,0.8999999761581421,0.00011615637540671742,1.0,9.999999747378752e-05
0.35806077541783454,0.8999999761581421,0.0003915598254934594,1.0,9.999999747378752e-05
0.35596750661497933,0.8999999761581421,5.278575717966305e-05,1.0,9.999999747378752e-05
0.3518185085617006,0.8999999761581421,0.0003886837555910461,1.0,9.999999747378752e-05
0.3460581619059667,0.8999999761581421,0.00034016390745819083,1.0,9.999999747378752e-05
0.34561789731960746,0.8999999761581421,0.0003101726053500897,1.0,9.999999747378752e-05
0.3468235825188458,0.8999999761581421,8.237368811023771e-05,1.0,9.999999747378752e-05
0.34851420221384616,0.8999999761581421,4.3294451188558014e-05,1.0,9.999999747378752e-05
0.3505380472401157,0.8999999761581421,0.00010040720644610701,1.0,9.999999747378752e-05
0.3520468710921705,0.8999999761581421,0.00011715114542312221,1.0,9.999999747378752e-05
0.350608074082993,0.8999999761581421,0.00023319087795243832,1.0,9.999999747378752e-05
0.35107178951147944,0.8999999761581421,7.368974856944988e-05,1.0,9.999999747378752e-05
0.3526146125164814,0.8999999761581421,0.00017071420761567425,1.0,9.999999747378752e-05
0.35036200305912646,0.8999999761581421,0.0002481239542248659,1.0,9.999999747378752e-05
0.35415977670345455,0.8999999761581421,0.00019591429991123733,1.0,9.999999747378752e-05
0.357232771103736,0.8999999761581421,0.00016992238597595132,1.0,9.999999747378752e-05
0.36011231212178246,0.8999999761581421,3.921725055988645e-05,1.0,9.999999747378752e-05
0.35750822954578326,0.8999999761581421,0.00015289116563508288,1.0,9.999999747378752e-05
0.3561723173945211,0.8999999761581421,0.0003435225507928408,1.0,9.999999747378752e-05
0.3571885253535584,0.8999999761581421,6.681629893137142e-05,1.0,9.999999747378752e-05
0.35180013536009935,0.8999999761581421,0.0005279793673253153,1.0,9.999999747378752e-05
0.35236378461122514,0.8999999761581421,0.00030444050789810715,1.0,9.999999747378752e-05
0.35630845769774167,0.8999999761581421,6.439888529712335e-05,1.0,9.999999747378752e-05
0.3602044369559735,0.8999999761581421,0.000125307093912852,1.0,9.999999747378752e-05
0.3644109862507321,0.8999999761581421,0.00017839641423051945,1.0,9.999999747378752e-05
0.36766492823371666,0.8999999761581421,8.243945835602062e-05,1.0,9.999999747378752e-05
0.3705800045630895,0.8999999761581421,9.617341656849021e-05,1.0,9.999999747378752e-05
0.3729665961815044,0.8999999761581421,0.00021152147237444297,1.0,9.999999747378752e-05
0.3774022236466408,0.8999999761581421,0.00037959529227009624,1.0,9.999999747378752e-05
0.3863227614434436,0.9200000166893005,0.00025636434274929344,1.0,9.999999747378752e-05
0.39696921495487913,0.9200000166893005,0.0001353828455648909,1.0,9.999999747378752e-05
0.40510753558482976,0.9200000166893005,0.0004652296827771352,1.0,9.999999747378752e-05
0.41035351088503375,0.9200000166893005,0.0003065087510549347,1.0,9.999999747378752e-05
0.4137269044993445,0.9200000166893005,7.934599761938443e-05,1.0,9.999999747378752e-05
0.41271592581178995,0.9200000166893005,7.089766477292869e-05,1.0,9.999999747378752e-05
0.40799918610136954,0.9200000166893005,0.0004955462595717108,1.0,9.999999747378752e-05
0.40061419892590494,0.8999999761581421,0.00013711493738810532,1.0,9.999999747378752e-05
0.39635938935680315,0.8999999761581421,0.0001257738314961898,1.0,9.999999747378752e-05
0.39668684591306375,0.9200000166893005,0.00037106953750480897,1.0,9.999999747378752e-05
0.3912278498755768,0.9200000166893005,0.000621709083134192,1.0,9.999999747378752e-05
0.3530767509713769,0.8999999761581421,0.0001227881213708315,1.0,9.999999747378752e-05
0.34839527257718145,0.8999999761581421,0.0001558196236146614,1.0,9.999999747378752e-05
0.3518988397205248,0.8999999761581421,0.00031317830753323505,1.0,9.999999747378752e-05
0.35917443527141585,0.8999999761581421,0.00013358668038563338,1.0,9.999999747378752e-05
0.36782845814013854,0.8999999761581421,0.00010276404773321702,1.0,9.999999747378752e-05
0.373268268047832,0.8999999761581421,7.025514096312691e-05,1.0,9.999999747378752e-05
0.37628013601060956,0.8999999761581421,0.00012806927661586088,1.0,9.999999747378752e-05
0.37759326237719504,0.8999999761581421,4.9018719801097176e-05,1.0,9.999999747378752e-05
0.37968443240970373,0.8999999761581421,0.0001255361034964153,1.0,9.999999747378752e-05
0.38157242868328467,0.8999999761581421,3.99210741306888e-05,1.0,9.999999747378752e-05
0.3849674380500801,0.8999999761581421,0.00010295406882505631,1.0,9.999999747378752e-05
0.38875135433627295,0.8999999761581421,5.2400774802663366e-05,1.0,9.999999747378752e-05
0.3947518390254118,0.8999999761581421,0.0002897316784583381,1.0,9.999999747378752e-05
0.40132062779739497,0.8999999761581421,0.00017822992103901924,1.0,9.999999747378752e-05
0.40014015601482245,0.8999999761581421,8.768363113631494e-05,1.0,9.999999747378752e-05
0.3983172132517211,0.8999999761581421,0.00020157024955551605,1.0,9.999999747378752e-05
0.4024305202648975,0.9200000166893005,0.0002780429277663643,1.0,9.999999747378752e-05
0.40032233516685667,0.9200000166893005,0.00019073345520155273,1.0,9.999999747378752e-05
0.3965341449249536,0.9200000166893005,0.00013296240049385233,1.0,9.999999747378752e-05
0.3950933509040624,0.9200000166893005,4.776681626026402e-05,1.0,9.999999747378752e-05
0.39618936090846546,0.9200000166893005,0.00012311192285778815,1.0,9.999999747378752e-05
0.3967568720516283,0.8999999761581421,9.589153851266019e-05,1.0,9.999999747378752e-05
0.396204508113442,0.8999999761581421,5.2217244319763265e-05,1.0,9.999999747378752e-05
0.3948011034633964,0.8999999761581421,8.374206499865977e-05,1.0,9.999999747378752e-05
0.3899481906904839,0.8999999761581421,0.00034151831609960934,1.0,9.999999747378752e-05
0.39803475523367526,0.8999999761581421,0.00019049443208132288,1.0,9.999999747378752e-05
0.40110233628656716,0.8999999761581421,0.0001087673914298648,1.0,9.999999747378752e-05
0.4009274548385292,0.8999999761581421,0.0003523016102917609,1.0,9.999999747378752e-05
0.39921108935959637,0.8999999761581421,0.00011827783991975593,1.0,9.999999747378752e-05
0.3987796473666094,0.8999999761581421,0.00013738107118115294,1.0,9.999999747378752e-05
0.4344205569359474,0.9200000166893005,0.0003551475909262081,1.0,9.999999747378752e-05
0.4466116297058761,0.9200000166893005,4.375382286525564e-05,1.0,9.999999747378752e-05
0.44937828099355104,0.8999999761581421,0.0001277303541883157,1.0,9.999999747378752e-05
0.44577992473496125,0.8999999761581421,5.9068653445137895e-05,1.0,9.999999747378752e-05
0.4408651964040473,0.8999999761581421,7.204317907962831e-05,1.0,9.999999747378752e-05
0.4353776985546574,0.8999999761581421,9.017823758767917e-05,1.0,9.999999747378752e-05
0.43046136932680384,0.8999999761581421,0.00012279524007681176,1.0,9.999999747378752e-05
0.4249293232918717,0.8999999761581421,5.75847627260373e-05,1.0,9.999999747378752e-05
0.42060211891075594,0.8999999761581421,0.0001421679206941917,1.0,9.999999747378752e-05
0.4099635251972359,0.8999999761581421,9.936926699083415e-05,1.0,9.999999747378752e-05
0.4067812265944667,0.8999999761581421,6.270198705351503e-05,1.0,9.999999747378752e-05
0.4050146763212979,0.8999999761581421,4.4265982160140994e-05,1.0,9.999999747378752e-05
0.40286998929805123,0.8999999761581421,7.672816395825066e-05,1.0,9.999999747378752e-05
0.400786945107393,0.8999999761581421,4.170033798800432e-05,1.0,9.999999747378752e-05
0.39958916205214334,0.8999999761581421,7.835861451894743e-05,1.0,9.999999747378752e-05
0.39843530711950736,0.8999999761581421,8.87612151018402e-05,1.0,9.999999747378752e-05
0.396787844481878,0.8999999761581421,6.60815534502035e-05,1.0,9.999999747378752e-05
0.39419624998699876,0.8999999761581421,9.681143947091187e-05,1.0,9.999999747378752e-05
0.40215043765492736,0.8999999761581421,0.0004039350444145384,1.0,9.999999747378752e-05
0.40462941558798776,0.8999999761581421,0.00011308360835755593,1.0,9.999999747378752e-05
0.4046128654386848,0.8999999761581421,5.4573028501181396e-05,1.0,9.999999747378752e-05
0.41084374889032915,0.8999999761581421,0.00016395274451497244,1.0,9.999999747378752e-05
0.41141731485258787,0.8999999761581421,9.179614398817648e-05,1.0,9.999999747378752e-05
0.3933456423459575,0.8999999761581421,0.00032796845025586665,1.0,9.999999747378752e-05
0.3673103098059073,0.8999999761581421,0.00010758177641037036,1.0,9.999999747378752e-05
0.3633302302332595,0.9200000166893005,6.252209923331974e-05,1.0,9.999999747378752e-05
0.3649783748551272,0.8999999761581421,7.845243326300987e-05,1.0,9.999999747378752e-05
0.37903862169478086,0.8999999761581421,0.0003350252740347059,1.0,9.999999747378752e-05
0.41042413339018824,0.9200000166893005,0.00022122602003946668,1.0,9.999999747378752e-05
0.4186241704039276,0.9200000166893005,0.00014931675968909985,1.0,9.999999747378752e-05
0.4188499707030132,0.9200000166893005,8.627331098978174e-05,1.0,9.999999747378752e-05
0.41748058416415007,0.8999999761581421,8.921472526708385e-05,1.0,9.999999747378752e-05
0.4147164597176015,0.8999999761581421,8.027263102121651e-05,1.0,9.999999747378752e-05
0.4108555295271799,0.8999999761581421,2.5409410591237246e-05,1.0,9.999999747378752e-05
0.4065326823969372,0.8999999761581421,0.00010447354816278676,1.0,9.999999747378752e-05
0.4015293540433049,0.8999999761581421,6.607647283090046e-05,1.0,9.999999747378752e-05
0.3977831089287065,0.8999999761581421,0.00015502896790167142,1.0,9.999999747378752e-05
0.39824802307412027,0.8999999761581421,0.00017000539064611077,1.0,9.999999747378752e-05
0.4004679334000684,0.8999999761581421,0.000301858799502952,1.0,9.999999747378752e-05
0.4009466590010561,0.8999999761581421,0.00010638413241395028,1.0,9.999999747378752e-05
0.3992942853074055,0.8999999761581421,7.218077595325668e-05,1.0,9.999999747378752e-05
0.39901561390142887,0.8999999761581421,6.095712024034583e-05,1.0,9.999999747378752e-05
0.4040584987960756,0.8999999761581421,0.00022478160663013113,1.0,9.999999747378752e-05
0.40673844708362594,0.8999999761581421,3.9359048059850466e-05,1.0,9.999999747378752e-05
0.4057371011120267,0.8999999761581421,0.00020081060411030193,1.0,9.999999747378752e-05
0.36809679837315346,0.9200000166893005,0.0007277368526047212,1.0,9.999999747378752e-05
0.35793540397426116,0.9200000166893005,0.00014499764893116662,1.0,9.999999747378752e-05
0.3564366654492915,0.9200000166893005,0.00011781792436522664,1.0,9.999999747378752e-05
0.35619123398791996,0.9200000166893005,6.679632315353956e-05,1.0,9.999999747378752e-05
0.37549157326575366,0.9200000166893005,0.0003361401122674579,1.0,9.999999747378752e-05
0.3974096572259441,0.9200000166893005,0.00031085594387150197,1.0,9.999999747378752e-05
0.4129163697361946,0.9200000166893005,8.464344746244024e-05,1.0,9.999999747378752e-05
0.41414199601858853,0.9200000166893005,0.00011194640337635065,1.0,9.999999747378752e-05
0.4060388970770873,0.9200000166893005,0.0001244485365532455,1.0,9.999999747378752e-05
0.40339910160982984,0.8999999761581421,3.7314432302082426e-05,1.0,9.999999747378752e-05
0.40174111066153273,0.8999999761581421,0.00010659425570338498,1.0,9.999999747378752e-05
0.4006297477812041,0.8999999761581421,0.00011257310097789741,1.0,9.999999747378752e-05
0.39886095881229267,0.8999999761581421,0.0001279084801353747,1.0,9.999999747378752e-05
0.39778531970223413,0.8999999761581421,7.646404137631179e-05,1.0,9.999999747378752e-05
0.3916879862663336,0.8999999761581421,0.0001654028179927991,1.0,9.999999747378752e-05
0.39666151142446326,0.8999999761581421,0.0003146954097701382,1.0,9.999999747378752e-05
0.4018216815486085,0.8999999761581421,8.747917072469136e-05,1.0,9.999999747378752e-05
0.4031970349897165,0.8999999761581421,5.541761884160223e-05,1.0,9.999999747378752e-05
0.40334281211253253,0.8999999761581421,4.9882552229973956e-05,1.0,9.999999747378752e-05
0.40313406813074837,0.8999999761581421,5.037484861531993e-05,1.0,9.999999747378752e-05
0.40479084685212,0.8999999761581421,8.376314035558607e-05,1.0,9.999999747378752e-05
0.4046575493004639,0.8999999761581421,5.7876924984157085e-05,1.0,9.999999747378752e-05
0.40057930310140366,0.8999999761581421,5.57742844648601e-05,1.0,9.999999747378752e-05
0.39926632976857945,0.8999999761581421,5.175646081170271e-05,1.0,9.999999747378752e-05
0.39946254522074015,0.8999999761581421,3.153123293486715e-05,1.0,9.999999747378752e-05
0.4000912761723157,0.8999999761581421,3.8079121986811514e-05,1.0,9.999999747378752e-05
0.40263256518519486,0.8999999761581421,0.00032365673714593866,1.0,9.999999747378752e-05
0.4036138207651675,0.8999999761581421,0.0001451260985049885,1.0,9.999999747378752e-05
0.4017280627856962,0.8999999761581421,3.1226013652485564e-05,1.0,9.999999747378752e-05
0.4034931776870508,0.8999999761581421,0.00015815362603461837,1.0,9.999999747378752e-05
0.4038930546725169,0.8999999761581421,0.00022411976951843826,1.0,9.999999747378752e-05
0.40288101449841635,0.8999999761581421,0.00017562367365826504,1.0,9.999999747378752e-05
0.3839794842526317,0.8999999761581421,0.0004529474487299012,1.0,9.999999747378752e-05
0.3791708307689987,0.8999999761581421,0.00011658008061203873,1.0,9.999999747378752e-05
0.37750404003309085,0.8999999761581421,0.000143583915223644,1.0,9.999999747378752e-05
0.37622099749278276,0.8999999761581421,8.60940911934449e-05,1.0,9.999999747378752e-05
0.3775766075705178,0.8999999761581421,0.0001005159781925613,1.0,9.999999747378752e-05
0.6306297748349607,0.8799999952316284,0.002689105936951819,1.0,9.999999747378752e-05
0.9578156027942896,0.8199999928474426,0.010551216933890828,1.0,9.999999747378752e-05
2.0964908957481385,0.7400000095367432,0.00741669121562154,1.0,9.999999747378752e-05
2.104224705696106,0.7400000095367432,0.0036823853966780006,1.0,9.999999747378752e-05
1.283488107472658,0.8600000143051147,0.002013762548449449,1.0,9.999999747378752e-05
0.8162725020200015,0.8399999737739563,0.004716185280994978,1.0,9.999999747378752e-05
0.6315954305231571,0.8799999952316284,0.0019163262768415734,1.0,9.999999747378752e-05
0.6573044441640377,0.8799999952316284,0.002220020937238587,1.0,9.999999747378752e-05
0.524572367221117,0.8999999761581421,0.002188834852859145,1.0,9.999999747378752e-05
0.3634467714698985,0.8999999761581421,0.00038846909128551486,1.0,9.999999747378752e-05
0.34853903437033296,0.8999999761581421,0.0005872174933756469,1.0,9.999999747378752e-05
0.34700314556248485,0.8999999761581421,0.0004123437454836676,1.0,9.999999747378752e-05
0.3494220574386418,0.8999999761581421,0.00019983175789093366,1.0,9.999999747378752e-05
0.3567839638562873,0.8999999761581421,0.0003988800679508131,1.0,9.999999747378752e-05
0.3627704832004383,0.8999999761581421,0.0002917919968240312,1.0,9.999999747378752e-05
0.36745475153438745,0.8999999761581421,0.00011725792674042169,1.0,9.999999747378752e-05
0.36088132923468946,0.8999999761581421,0.001000881861182279,1.0,9.999999747378752e-05
0.3577563209459186,0.8999999761581421,0.00018373415605310583,1.0,9.999999747378752e-05
0.3605784535873681,0.8999999761581421,0.00018213227067462868,1.0,9.999999747378752e-05
0.3651869307504967,0.8999999761581421,0.00015884216809354258,1.0,9.999999747378752e-05
0.3695293549448252,0.8999999761581421,0.00013857880458090222,1.0,9.999999747378752e-05
0.37430900412146,0.8999999761581421,0.00017101019620895385,1.0,9.999999747378752e-05
0.37893252170179037,0.8999999761581421,0.00012802503570128466,1.0,9.999999747378752e-05
0.3837241510394961,0.8999999761581421,0.00011533533070178237,1.0,9.999999747378752e-05
0.41288717719726264,0.8999999761581421,0.0010567171580987632,1.0,9.999999747378752e-05
0.4299552402459085,0.8999999761581421,0.0002633804919241811,1.0,9.999999747378752e-05
0.42711625532247127,0.8999999761581421,0.0013318374707523618,1.0,9.999999747378752e-05
0.43646271019242705,0.9200000166893005,0.00030345048580784353,1.0,9.999999747378752e-05
0.4396882532630116,0.9200000166893005,0.00038167037837411044,1.0,9.999999747378752e-05
0.44231424005702136,0.9200000166893005,8.117353809211636e-05,1.0,9.999999747378752e-05
0.4391746482346207,0.9200000166893005,0.0001027968863127171,1.0,9.999999747378752e-05
0.4322793062310666,0.8999999761581421,0.0005897037663089577,1.0,9.999999747378752e-05
0.420793762197718,0.8999999761581421,0.00026517557616898555,1.0,9.999999747378752e-05
0.4154256105655804,0.8999999761581421,0.00010643995683494723,1.0,9.999999747378752e-05
0.4144183895317838,0.8999999761581421,0.00016747687241149833,1.0,9.999999747378752e-05
0.41449058984871956,0.8999999761581421,7.073537781252526e-05,1.0,9.999999747378752e-05
0.41336711242329327,0.8999999761581421,8.377725444006501e-05,1.0,9.999999747378752e-05
0.4132613533176482,0.8999999761581421,0.00036536724574034454,1.0,9.999999747378752e-05
