val_loss,val_accuracy,loss,accuracy,lr
0.6674702167510986,0.5799999833106995,0.5328438413143158,0.7599999904632568,0.0010000000474974513
0.6938683986663818,0.5799999833106995,0.313727480173111,0.8600000143051147,0.0010000000474974513
0.7230940461158752,0.5799999833106995,0.2892896509170532,0.8899999856948853,0.0010000000474974513
0.7052615284919739,0.5799999833106995,0.2114963263273239,0.8999999761581421,0.0010000000474974513
0.6552656292915344,0.5799999833106995,0.1838313317298889,0.9100000262260437,0.0010000000474974513
0.6046186685562134,0.5799999833106995,0.15364243745803832,0.9700000286102295,0.0010000000474974513
0.5689282417297363,0.6600000262260437,0.11435427486896516,0.9800000190734863,0.0010000000474974513
0.5709269642829895,0.8999999761581421,0.09982515782117844,0.949999988079071,0.0010000000474974513
0.6318357586860657,0.5,0.06568530082702637,0.9900000095367432,0.0010000000474974513
0.741526186466217,0.41999998688697815,0.06045979142189026,0.9800000190734863,0.0010000000474974513
0.7592473030090332,0.41999998688697815,0.04013953030109405,0.9900000095367432,0.0010000000474974513
0.6672604084014893,0.4399999976158142,0.039846439212560654,1.0,0.0010000000474974513
0.6865403652191162,0.4399999976158142,0.024002538584172724,1.0,0.0010000000474974513
0.785348653793335,0.41999998688697815,0.01841119758784771,1.0,0.0010000000474974513
1.010534405708313,0.41999998688697815,0.01869725652039051,1.0,0.0010000000474974513
1.2293778657913208,0.41999998688697815,0.0129057265073061,1.0,0.0010000000474974513
1.4064074754714966,0.41999998688697815,0.009535221010446548,1.0,0.0010000000474974513
1.6313062906265259,0.41999998688697815,0.007166739217936992,1.0,0.0010000000474974513
1.8842107057571411,0.41999998688697815,0.005669142827391624,1.0,0.0010000000474974513
2.062509536743164,0.41999998688697815,0.007139472123235464,1.0,0.0010000000474974513
2.2046215534210205,0.41999998688697815,0.004207317046821118,1.0,0.0010000000474974513
2.349092483520508,0.41999998688697815,0.0034326586220413445,1.0,0.0010000000474974513
2.5012784004211426,0.41999998688697815,0.002985072685405612,1.0,0.0010000000474974513
2.70045804977417,0.41999998688697815,0.003287337515503168,1.0,0.0010000000474974513
2.91365385055542,0.41999998688697815,0.002358657717704773,1.0,0.0010000000474974513
3.1159844398498535,0.41999998688697815,0.0025785764399915935,1.0,0.0010000000474974513
3.31190824508667,0.41999998688697815,0.0017303603561595082,1.0,0.0010000000474974513
3.4703121185302734,0.41999998688697815,0.0016421255748718976,1.0,0.0010000000474974513
3.5711331367492676,0.41999998688697815,0.00239592413417995,1.0,0.0010000000474974513
3.653790235519409,0.41999998688697815,0.0027979384176433086,1.0,0.0010000000474974513
3.724534034729004,0.41999998688697815,0.0012724769301712513,1.0,0.0010000000474974513
3.7926180362701416,0.41999998688697815,0.0011466183327138424,1.0,0.0010000000474974513
3.8741869926452637,0.41999998688697815,0.0016495579201728106,1.0,0.0010000000474974513
3.9513556957244873,0.41999998688697815,0.0010334834083914758,1.0,0.0010000000474974513
4.058027267456055,0.41999998688697815,0.0013486607745289802,1.0,0.0010000000474974513
4.165603160858154,0.41999998688697815,0.0009486228693276644,1.0,0.0010000000474974513
4.276927947998047,0.41999998688697815,0.0009206014173105359,1.0,0.0010000000474974513
4.393847465515137,0.41999998688697815,0.0008680706843733788,1.0,0.0010000000474974513
4.511496067047119,0.41999998688697815,0.0010061861341819167,1.0,0.0010000000474974513
4.582737922668457,0.41999998688697815,0.0014076802413910626,1.0,0.0010000000474974513
4.6107258796691895,0.41999998688697815,0.0018880158383399249,1.0,0.0010000000474974513
4.63107442855835,0.41999998688697815,0.0006757747917436063,1.0,0.0010000000474974513
4.671629428863525,0.41999998688697815,0.0007111097918823361,1.0,0.0010000000474974513
4.714115142822266,0.41999998688697815,0.0012931878957897424,1.0,0.0010000000474974513
4.767065525054932,0.41999998688697815,0.0006362355640158057,1.0,0.0010000000474974513
4.8216233253479,0.41999998688697815,0.0007680341554805637,1.0,0.0010000000474974513
4.885254383087158,0.41999998688697815,0.000578878007363528,1.0,0.0010000000474974513
4.9440741539001465,0.41999998688697815,0.0006340769329108298,1.0,0.0010000000474974513
5.003077983856201,0.41999998688697815,0.0006700652418658137,1.0,0.0010000000474974513
5.067091464996338,0.41999998688697815,0.0008801709301769733,1.0,0.0010000000474974513
5.141790390014648,0.41999998688697815,0.0005129304551519453,1.0,0.0010000000474974513
5.205381393432617,0.41999998688697815,0.0006511770095676184,1.0,0.0010000000474974513
5.255774021148682,0.41999998688697815,0.0008223230205476284,1.0,0.0010000000474974513
5.26666259765625,0.41999998688697815,0.0024402097240090372,1.0,0.0010000000474974513
5.2818074226379395,0.41999998688697815,0.0005092122498899698,1.0,0.0010000000474974513
5.292120933532715,0.41999998688697815,0.000721057765185833,1.0,0.0010000000474974513
5.308213710784912,0.41999998688697815,0.00048076081089675426,1.0,0.0010000000474974513
5.3192973136901855,0.41999998688697815,0.0005023656948469579,1.0,0.0010000000474974513
5.339956760406494,0.41999998688697815,0.0007128214044496417,1.0,0.0010000000474974513
5.355412483215332,0.41999998688697815,0.00043160095927305517,1.0,0.0010000000474974513
5.3652191162109375,0.41999998688697815,0.0004972067312337458,1.0,0.0010000000474974513
5.377578258514404,0.41999998688697815,0.0004300272813998163,1.0,0.0010000000474974513
5.398497104644775,0.41999998688697815,0.001056630308739841,1.0,0.0010000000474974513
5.416858673095703,0.41999998688697815,0.0011982514197006822,1.0,0.0010000000474974513
5.440439224243164,0.41999998688697815,0.00036711726104840634,1.0,0.0010000000474974513
5.464008331298828,0.41999998688697815,0.0005702456785365939,1.0,0.0010000000474974513
5.498977184295654,0.41999998688697815,0.00036541559267789126,1.0,0.0010000000474974513
5.530874252319336,0.41999998688697815,0.0005247754952870309,1.0,0.0010000000474974513
5.551331996917725,0.41999998688697815,0.0005409385729581118,1.0,0.0010000000474974513
5.577070713043213,0.41999998688697815,0.0003228691266849637,1.0,0.0010000000474974513
5.570396900177002,0.41999998688697815,0.0006851462321355939,1.0,0.0010000000474974513
5.546648979187012,0.41999998688697815,0.0003384972352068871,1.0,0.0010000000474974513
5.511053562164307,0.41999998688697815,0.0006326665822416543,1.0,0.0010000000474974513
5.483769416809082,0.41999998688697815,0.00031728531117551027,1.0,0.0010000000474974513
5.456639289855957,0.41999998688697815,0.00030631821718998256,1.0,0.0010000000474974513
5.433965682983398,0.41999998688697815,0.00031571524566970766,1.0,0.0010000000474974513
5.410208702087402,0.41999998688697815,0.00028839553822763265,1.0,0.0010000000474974513
5.398563385009766,0.41999998688697815,0.0008812442095950246,1.0,0.0010000000474974513
5.369038105010986,0.41999998688697815,0.0003457080957014114,1.0,0.0010000000474974513
5.347125053405762,0.41999998688697815,0.00029136713012121616,1.0,0.0010000000474974513
5.336105823516846,0.41999998688697815,0.0002853925013914704,1.0,0.0010000000474974513
5.32231330871582,0.41999998688697815,0.00028097397997044025,1.0,0.0010000000474974513
5.354925632476807,0.41999998688697815,0.0010242041852325202,1.0,0.0010000000474974513
5.383370876312256,0.41999998688697815,0.0002594840386882424,1.0,0.0010000000474974513
5.390093803405762,0.41999998688697815,0.00023820227943360806,1.0,0.0010000000474974513
5.385012149810791,0.41999998688697815,0.0003999134479090571,1.0,0.0010000000474974513
5.34947395324707,0.41999998688697815,0.00041438401909545065,1.0,0.0010000000474974513
5.299838066101074,0.41999998688697815,0.00023897739825770259,1.0,0.0010000000474974513
5.250974178314209,0.41999998688697815,0.000290715959854424,1.0,0.0010000000474974513
5.198850154876709,0.41999998688697815,0.0002346734469756484,1.0,0.0010000000474974513
5.147883892059326,0.41999998688697815,0.00022958180808927865,1.0,0.0010000000474974513
5.110358238220215,0.41999998688697815,0.0002842715405859053,1.0,0.0010000000474974513
5.083637714385986,0.41999998688697815,0.00033524555852636694,1.0,0.0010000000474974513
5.061680793762207,0.41999998688697815,0.0002165717154275626,1.0,0.0010000000474974513
5.044732570648193,0.41999998688697815,0.00026156344101764263,1.0,0.0010000000474974513
5.021213531494141,0.41999998688697815,0.00021222196752205492,1.0,0.0010000000474974513
5.0053839683532715,0.41999998688697815,0.00034432237036526205,1.0,0.0010000000474974513
4.9757890701293945,0.41999998688697815,0.00020374037441797554,1.0,0.0010000000474974513
4.951635837554932,0.41999998688697815,0.0003304721671156585,1.0,0.0010000000474974513
4.916340351104736,0.41999998688697815,0.00020175369398202746,1.0,0.0010000000474974513
4.87631368637085,0.41999998688697815,0.00031226267805323005,1.0,0.0010000000474974513
4.85013484954834,0.41999998688697815,0.0003248020610772073,1.0,0.0010000000474974513
4.811497688293457,0.41999998688697815,0.00023807315505109728,1.0,0.0010000000474974513
4.767865180969238,0.41999998688697815,0.0001793381746392697,1.0,0.0010000000474974513
4.719426155090332,0.41999998688697815,0.00017893074138555676,1.0,0.0010000000474974513
4.680686950683594,0.41999998688697815,0.00023997237789444626,1.0,0.0010000000474974513
4.6414337158203125,0.41999998688697815,0.00031351548386737704,1.0,0.0010000000474974513
4.613767147064209,0.41999998688697815,0.00028465257957577706,1.0,0.0010000000474974513
4.576098442077637,0.41999998688697815,0.0002230982610490173,1.0,0.0010000000474974513
4.528642177581787,0.41999998688697815,0.0001768131961580366,1.0,0.0010000000474974513
4.475362777709961,0.41999998688697815,0.0001598581246798858,1.0,0.0010000000474974513
4.420530319213867,0.41999998688697815,0.00021930497838184237,1.0,0.0010000000474974513
4.346923828125,0.41999998688697815,0.0003740159887820482,1.0,0.0010000000474974513
4.256890773773193,0.41999998688697815,0.00016726496163755656,1.0,0.0010000000474974513
4.174418926239014,0.41999998688697815,0.00015992088709026575,1.0,0.0010000000474974513
4.101167678833008,0.41999998688697815,0.00016190547496080398,1.0,0.0010000000474974513
4.0354132652282715,0.41999998688697815,0.00015062163351103663,1.0,0.0010000000474974513
3.97908091545105,0.41999998688697815,0.00036033339565619824,1.0,0.0010000000474974513
3.9477171897888184,0.41999998688697815,0.00014556221023667604,1.0,0.0010000000474974513
3.910992383956909,0.41999998688697815,0.00014513635775074364,1.0,0.0010000000474974513
3.8709936141967773,0.41999998688697815,0.00019888929673470557,1.0,0.0010000000474974513
3.797372341156006,0.41999998688697815,0.0003107542125508189,1.0,0.0010000000474974513
3.710817337036133,0.41999998688697815,0.0001457382581429556,1.0,0.0010000000474974513
3.6248433589935303,0.41999998688697815,0.00016441966232378036,1.0,0.0010000000474974513
3.557961940765381,0.41999998688697815,0.00023438640404492615,1.0,0.0010000000474974513
3.487156867980957,0.41999998688697815,0.00014041979884495958,1.0,0.0010000000474974513
3.4224579334259033,0.41999998688697815,0.0001317903201561421,1.0,0.0010000000474974513
3.3634145259857178,0.41999998688697815,0.00013449828431475909,1.0,0.0010000000474974513
3.304351806640625,0.41999998688697815,0.0001468041556654498,1.0,0.0010000000474974513
3.248983860015869,0.41999998688697815,0.00016761839448008685,1.0,0.0010000000474974513
3.1863298416137695,0.41999998688697815,0.00013831438322085886,1.0,0.0010000000474974513
3.129362106323242,0.41999998688697815,0.00014090972719714047,1.0,0.0010000000474974513
3.0774667263031006,0.41999998688697815,0.0003211831557564437,1.0,0.0010000000474974513
3.0061964988708496,0.41999998688697815,0.00020867903716862202,1.0,0.0010000000474974513
2.932551383972168,0.41999998688697815,0.00013374747766647487,1.0,0.0010000000474974513
2.855778455734253,0.41999998688697815,0.0004851598641835153,1.0,0.0010000000474974513
2.7857778072357178,0.41999998688697815,0.00012038049375405535,1.0,0.0010000000474974513
2.714041233062744,0.41999998688697815,0.0001247352018253878,1.0,0.0010000000474974513
2.651272773742676,0.41999998688697815,0.00016127829032484443,1.0,0.0010000000474974513
2.5890369415283203,0.41999998688697815,0.00012620630383025855,1.0,0.0010000000474974513
2.5412158966064453,0.41999998688697815,0.00029864159412682054,1.0,0.0010000000474974513
2.4888477325439453,0.41999998688697815,0.00020507955108769237,1.0,0.0010000000474974513
2.4142496585845947,0.41999998688697815,0.00018196701887063683,1.0,0.0010000000474974513
2.3152215480804443,0.41999998688697815,0.00024688206263817847,1.0,0.0010000000474974513
2.220078229904175,0.41999998688697815,0.00011199790897080675,1.0,0.0010000000474974513
2.13851261138916,0.41999998688697815,0.00011599950841628014,1.0,0.0010000000474974513
2.0910727977752686,0.4399999976158142,0.00022062324336729944,1.0,0.0010000000474974513
2.0570287704467773,0.4399999976158142,0.00014279567869380117,1.0,0.0010000000474974513
2.020167350769043,0.4399999976158142,0.00018269695632625372,1.0,0.0010000000474974513
1.996224045753479,0.46000000834465027,0.0001909243152476847,1.0,0.0010000000474974513
1.9564788341522217,0.5,0.00010670796560589224,1.0,0.0010000000474974513
1.8896679878234863,0.5,0.000298741664737463,1.0,0.0010000000474974513
1.8190546035766602,0.5199999809265137,0.00011048080807086081,1.0,0.0010000000474974513
1.7539864778518677,0.5600000023841858,0.0002397482527885586,1.0,0.0010000000474974513
1.6807254552841187,0.5600000023841858,9.771410725079477e-05,1.0,0.0010000000474974513
1.619289517402649,0.5799999833106995,0.00013992401596624404,1.0,0.0010000000474974513
1.5607833862304688,0.5799999833106995,0.00010584767413092778,1.0,0.0010000000474974513
1.5113918781280518,0.5799999833106995,0.00018356371321715415,1.0,0.0010000000474974513
1.4577951431274414,0.6000000238418579,0.00012059849366778508,1.0,0.0010000000474974513
1.4100613594055176,0.6200000047683716,0.00010101727209985256,1.0,0.0010000000474974513
1.3631198406219482,0.6200000047683716,0.00011561100371181964,1.0,0.0010000000474974513
1.3232632875442505,0.6800000071525574,9.152187150903046e-05,1.0,0.0010000000474974513
1.2869585752487183,0.6800000071525574,0.00013012559269554914,1.0,0.0010000000474974513
1.2514066696166992,0.6800000071525574,9.940256306435913e-05,1.0,0.0010000000474974513
1.2106434106826782,0.6800000071525574,0.00014208811160642653,1.0,0.0010000000474974513
1.1782702207565308,0.6800000071525574,0.00016575662477407604,1.0,0.0010000000474974513
1.1518325805664062,0.699999988079071,8.847749209962785e-05,1.0,0.0010000000474974513
1.118059515953064,0.699999988079071,8.926792012061923e-05,1.0,0.0005000000237487257
1.085067868232727,0.699999988079071,9.489269577898086e-05,1.0,0.0005000000237487257
1.0522069931030273,0.699999988079071,9.475048427702859e-05,1.0,0.0005000000237487257
1.0174033641815186,0.7200000286102295,0.00011574403615668415,1.0,0.0005000000237487257
0.9834395051002502,0.7200000286102295,0.00010481738427188247,1.0,0.0005000000237487257
0.9524815082550049,0.7200000286102295,9.519025712506846e-05,1.0,0.0005000000237487257
0.9213604927062988,0.7400000095367432,9.252116549760103e-05,1.0,0.0005000000237487257
0.8879368305206299,0.7599999904632568,0.00011155420099385083,1.0,0.0005000000237487257
0.8554362654685974,0.7799999713897705,8.914571983041241e-05,1.0,0.0005000000237487257
0.8251492381095886,0.800000011920929,8.715442090760917e-05,1.0,0.0005000000237487257
0.7924104928970337,0.800000011920929,0.00022914753062650562,1.0,0.0005000000237487257
0.7624441385269165,0.8199999928474426,0.00022246971144340933,1.0,0.0005000000237487257
0.734264075756073,0.8199999928474426,0.00021399311255663634,1.0,0.0005000000237487257
0.7046480774879456,0.8199999928474426,9.015336050651967e-05,1.0,0.0005000000237487257
0.6778169274330139,0.8199999928474426,8.199234056519345e-05,1.0,0.0005000000237487257
0.6530497074127197,0.8399999737739563,8.349644718691707e-05,1.0,0.0005000000237487257
0.6292177438735962,0.8600000143051147,8.17754358286038e-05,1.0,0.0005000000237487257
0.6075513362884521,0.8600000143051147,0.00010973355325404555,1.0,0.0005000000237487257
0.5924835205078125,0.8600000143051147,0.0001464676921023056,1.0,0.0005000000237487257
0.5765395760536194,0.8600000143051147,9.285174775868654e-05,1.0,0.0005000000237487257
0.5609554648399353,0.8600000143051147,0.00011435499589424581,1.0,0.0005000000237487257
0.5432502031326294,0.8600000143051147,0.00010167337575694546,1.0,0.0005000000237487257
0.5283312201499939,0.8600000143051147,0.00010494492773432284,1.0,0.0005000000237487257
0.5129355788230896,0.8600000143051147,8.019960485398769e-05,1.0,0.0005000000237487257
0.49778884649276733,0.8600000143051147,7.826985005522146e-05,1.0,0.0005000000237487257
0.4840320646762848,0.8600000143051147,0.0001024115743348375,1.0,0.0005000000237487257
0.46947968006134033,0.8799999952316284,7.813272648490965e-05,1.0,0.0005000000237487257
0.45683640241622925,0.8799999952316284,0.0001491867972072214,1.0,0.0005000000237487257
0.4432469308376312,0.8799999952316284,0.00011952528962865472,1.0,0.0005000000237487257
0.42940646409988403,0.8799999952316284,8.701831597136333e-05,1.0,0.0005000000237487257
0.415131151676178,0.8799999952316284,7.908981322543696e-05,1.0,0.0005000000237487257
0.40191614627838135,0.8999999761581421,7.928887294838205e-05,1.0,0.0005000000237487257
0.39009833335876465,0.8999999761581421,8.40121804503724e-05,1.0,0.0005000000237487257
0.3780624270439148,0.9200000166893005,7.640562165761366e-05,1.0,0.0005000000237487257
0.3656472861766815,0.9200000166893005,9.387734840856865e-05,1.0,0.0005000000237487257
0.35455209016799927,0.9200000166893005,9.899492142722011e-05,1.0,0.0005000000237487257
0.3433988094329834,0.9200000166893005,7.963084062794224e-05,1.0,0.0005000000237487257
0.33263611793518066,0.9200000166893005,8.189747168216855e-05,1.0,0.0005000000237487257
0.3227085471153259,0.9200000166893005,0.00020635047578252853,1.0,0.0005000000237487257
0.31086117029190063,0.9200000166893005,0.00010466046980582177,1.0,0.0005000000237487257
0.2995765507221222,0.8999999761581421,7.401805254630744e-05,1.0,0.0005000000237487257
0.2893260717391968,0.8999999761581421,0.0001363252126611769,1.0,0.0005000000237487257
0.2810227870941162,0.8999999761581421,9.175835584755987e-05,1.0,0.0005000000237487257
0.27456772327423096,0.8999999761581421,0.0001326816197251901,1.0,0.0005000000237487257
0.2685360014438629,0.8999999761581421,0.00014336927910335362,1.0,0.0005000000237487257
0.26178282499313354,0.8999999761581421,8.326169627252966e-05,1.0,0.0005000000237487257
0.25538283586502075,0.8999999761581421,0.00012757151562254877,1.0,0.0005000000237487257
0.2478971928358078,0.8999999761581421,7.624224410392344e-05,1.0,0.0005000000237487257
0.24087893962860107,0.8999999761581421,7.207045971881599e-05,1.0,0.0005000000237487257
0.2339777946472168,0.8999999761581421,7.436006213538348e-05,1.0,0.0005000000237487257
0.22819411754608154,0.8999999761581421,9.702707407996058e-05,1.0,0.0002500000118743628
0.22235198318958282,0.8999999761581421,7.796057296218351e-05,1.0,0.0002500000118743628
0.21643571555614471,0.9200000166893005,6.987126660533249e-05,1.0,0.0002500000118743628
0.2109392285346985,0.9200000166893005,7.870769739383832e-05,1.0,0.0002500000118743628
0.20555239915847778,0.9200000166893005,7.819428836228326e-05,1.0,0.0002500000118743628
0.200683131814003,0.9200000166893005,0.00012364026857540012,1.0,0.0002500000118743628
0.1954599767923355,0.9200000166893005,8.781858079601079e-05,1.0,0.0002500000118743628
0.19082841277122498,0.9200000166893005,7.035034388536588e-05,1.0,0.0002500000118743628
0.18611375987529755,0.9200000166893005,7.169377146055922e-05,1.0,0.0002500000118743628
0.18148791790008545,0.9200000166893005,7.286401552846655e-05,1.0,0.0002500000118743628
0.17761096358299255,0.9200000166893005,0.00013355264149140567,1.0,0.0002500000118743628
0.1736467033624649,0.9200000166893005,0.00012296719243749975,1.0,0.0002500000118743628
0.1693505495786667,0.9200000166893005,0.00012017801054753363,1.0,0.0002500000118743628
0.1657913774251938,0.9200000166893005,7.420228997943923e-05,1.0,0.0002500000118743628
0.1620941162109375,0.9200000166893005,0.0001240901299752295,1.0,0.0002500000118743628
0.15883956849575043,0.9200000166893005,7.126205717213452e-05,1.0,0.0002500000118743628
0.15449732542037964,0.9399999976158142,0.0001829817157704383,1.0,0.0002500000118743628
0.1503898948431015,0.9399999976158142,6.896766804857179e-05,1.0,0.0002500000118743628
0.14691650867462158,0.9399999976158142,7.531083596404642e-05,1.0,0.0002500000118743628
0.14396075904369354,0.9399999976158142,9.069848281797022e-05,1.0,0.0002500000118743628
0.141052708029747,0.9399999976158142,6.655639357632026e-05,1.0,0.0002500000118743628
0.13837812840938568,0.9399999976158142,6.881035151309333e-05,1.0,0.0002500000118743628
0.13598263263702393,0.9399999976158142,6.651940057054163e-05,1.0,0.0002500000118743628
0.13369035720825195,0.9399999976158142,7.149819022743031e-05,1.0,0.0002500000118743628
0.13170045614242554,0.9399999976158142,0.00017001501866616307,1.0,0.0002500000118743628
0.13026243448257446,0.9599999785423279,7.415473315631971e-05,1.0,0.0002500000118743628
0.12881708145141602,0.9599999785423279,6.929185270564631e-05,1.0,0.0002500000118743628
0.1273450255393982,0.9599999785423279,7.071956031722948e-05,1.0,0.0002500000118743628
0.1258939951658249,0.9599999785423279,6.741807650541887e-05,1.0,0.0002500000118743628
0.12453719973564148,0.9599999785423279,7.212371099740266e-05,1.0,0.0002500000118743628
0.12309333682060242,0.9599999785423279,6.583992537343874e-05,1.0,0.0002500000118743628
0.1219266802072525,0.9599999785423279,0.00011898175231181085,1.0,0.0002500000118743628
0.12072733044624329,0.9599999785423279,7.143607042962685e-05,1.0,0.0002500000118743628
0.11941126734018326,0.9599999785423279,6.663020729320124e-05,1.0,0.0002500000118743628
0.11807107925415039,0.9599999785423279,6.606993614695967e-05,1.0,0.0002500000118743628
0.11678171157836914,0.9599999785423279,6.891278142575175e-05,1.0,0.0002500000118743628
0.11572021245956421,0.9599999785423279,8.630245458334684e-05,1.0,0.0002500000118743628
0.11469834297895432,0.9599999785423279,6.581018882570789e-05,1.0,0.0002500000118743628
0.11350458860397339,0.9599999785423279,0.0001535561541095376,1.0,0.0002500000118743628
0.11249503493309021,0.9599999785423279,6.505919911433011e-05,1.0,0.0002500000118743628
0.11155607551336288,0.9599999785423279,7.300539960851893e-05,1.0,0.0002500000118743628
0.11068876087665558,0.9599999785423279,0.00017114366986788809,1.0,0.0002500000118743628
0.1097719594836235,0.9599999785423279,0.00015984780038706957,1.0,0.0002500000118743628
0.1090543195605278,0.9599999785423279,6.91248697694391e-05,1.0,0.0002500000118743628
0.10847882926464081,0.9599999785423279,0.00017849353374913335,1.0,0.0002500000118743628
0.10787683725357056,0.9599999785423279,6.320334214251488e-05,1.0,0.0002500000118743628
0.10733570903539658,0.9599999785423279,6.661820429144427e-05,1.0,0.0002500000118743628
0.10692619532346725,0.9599999785423279,8.474519738228992e-05,1.0,0.0002500000118743628
0.10660193115472794,0.9599999785423279,0.0001149385329335928,1.0,0.0002500000118743628
0.10629408061504364,0.9599999785423279,0.00011444279458373785,1.0,0.0002500000118743628
0.1059829592704773,0.9599999785423279,7.224307133583351e-05,1.0,0.0001250000059371814
0.10564007610082626,0.9599999785423279,6.3193817040883e-05,1.0,0.0001250000059371814
0.10535942763090134,0.9599999785423279,8.390351780690253e-05,1.0,0.0001250000059371814
0.10504106432199478,0.9599999785423279,8.701837185071782e-05,1.0,0.0001250000059371814
0.1047777459025383,0.9599999785423279,7.157366315368563e-05,1.0,0.0001250000059371814
0.10470184683799744,0.9599999785423279,6.919370527612045e-05,1.0,0.0001250000059371814
0.10473441332578659,0.9599999785423279,0.00016723823675420134,1.0,0.0001250000059371814
0.10468985885381699,0.9599999785423279,6.304951093625278e-05,1.0,0.0001250000059371814
0.10473531484603882,0.9599999785423279,7.994833867996931e-05,1.0,0.0001250000059371814
0.10477433353662491,0.9599999785423279,6.767378363292664e-05,1.0,0.0001250000059371814
0.10480319708585739,0.9599999785423279,6.713543087244033e-05,1.0,0.0001250000059371814
0.1049211323261261,0.9599999785423279,7.959669950651005e-05,1.0,0.0001250000059371814
0.10503479838371277,0.9599999785423279,8.113987802062184e-05,1.0,0.0001250000059371814
0.105191171169281,0.9599999785423279,6.525450371555052e-05,1.0,0.0001250000059371814
0.10531257838010788,0.9599999785423279,6.545005657244473e-05,1.0,0.0001250000059371814
0.10542270541191101,0.9599999785423279,6.411018432117999e-05,1.0,0.0001250000059371814
0.10553765296936035,0.9800000190734863,8.530590683221817e-05,1.0,0.0001250000059371814
0.10568846017122269,0.9800000190734863,6.31043265457265e-05,1.0,0.0001250000059371814
0.1059034988284111,0.9800000190734863,6.55871168419253e-05,1.0,0.0001250000059371814
0.10610244423151016,0.9800000190734863,6.456087401602418e-05,1.0,0.0001250000059371814
0.10642916709184647,0.9800000190734863,7.706633099587635e-05,1.0,0.0001250000059371814
0.10687841475009918,0.9800000190734863,7.904956466518342e-05,1.0,0.0001250000059371814
0.10736216604709625,0.9800000190734863,6.661922408966347e-05,1.0,0.0001250000059371814
0.10773691534996033,0.9800000190734863,0.0002459565899334848,1.0,0.0001250000059371814
0.1086055263876915,0.9800000190734863,0.00016192178474739194,1.0,0.0001250000059371814
0.10938549041748047,0.9800000190734863,6.22437107085716e-05,1.0,0.0001250000059371814
0.10979470610618591,0.9800000190734863,0.0001569311210187152,1.0,0.0001250000059371814
0.11016280204057693,0.9800000190734863,0.0001157717767637223,1.0,0.0001250000059371814
0.11072006076574326,0.9800000190734863,0.00011870960239320993,1.0,0.0001250000059371814
0.11103908717632294,0.9800000190734863,6.28015234542545e-05,1.0,0.0001250000059371814
0.1113700270652771,0.9800000190734863,6.23223531874828e-05,1.0,0.0001250000059371814
0.11172246187925339,0.9800000190734863,6.30327226826921e-05,1.0,0.0001250000059371814
0.11212892830371857,0.9800000190734863,7.874681294197217e-05,1.0,0.0001250000059371814
0.11252235621213913,0.9800000190734863,0.0002591075515374541,1.0,0.0001250000059371814
0.11244112253189087,0.9800000190734863,6.636988182435743e-05,1.0,0.0001250000059371814
0.11220692843198776,0.9800000190734863,6.876796367578209e-05,1.0,0.0001250000059371814
0.11213783174753189,0.9800000190734863,0.00018241938552819193,1.0,0.0001250000059371814
0.11179981380701065,0.9800000190734863,6.37740979436785e-05,1.0,0.0001250000059371814
0.11169300228357315,0.9800000190734863,0.00011377059970982373,1.0,0.0001250000059371814
0.11164967715740204,0.9800000190734863,7.583755577798002e-05,1.0,0.0001250000059371814
0.11197441816329956,0.9800000190734863,0.0001482190319802612,1.0,0.0001250000059371814
0.11212489753961563,0.9800000190734863,6.121023514424451e-05,1.0,0.0001250000059371814
0.11230067908763885,0.9800000190734863,6.744528247509151e-05,1.0,0.0001250000059371814
0.11246933043003082,0.9800000190734863,6.992252194322646e-05,1.0,0.0001250000059371814
0.1126866415143013,0.9800000190734863,0.00011898753349669278,1.0,0.0001250000059371814
0.1132197305560112,0.9800000190734863,6.0555805102922026e-05,1.0,0.0001250000059371814
0.11372624337673187,0.9800000190734863,6.239382055355236e-05,1.0,0.0001250000059371814
0.11439760029315948,0.9800000190734863,7.960949849803001e-05,1.0,0.0001250000059371814
0.1148303672671318,0.9800000190734863,6.091457413276658e-05,1.0,0.0001250000059371814
0.11544397473335266,0.9800000190734863,6.470125677878968e-05,1.0,0.0001250000059371814
0.1163782849907875,0.9800000190734863,0.00015572338306810707,1.0,9.999999747378752e-05
0.11691132187843323,0.9800000190734863,8.058450213866309e-05,1.0,9.999999747378752e-05
0.11744226515293121,0.9800000190734863,8.134885632898658e-05,1.0,9.999999747378752e-05
0.11799903213977814,0.9800000190734863,6.0287617379799485e-05,1.0,9.999999747378752e-05
0.11849511414766312,0.9800000190734863,6.0074184148106724e-05,1.0,9.999999747378752e-05
0.11892407387495041,0.9800000190734863,6.576107203727588e-05,1.0,9.999999747378752e-05
0.11940457671880722,0.9800000190734863,5.983945826301351e-05,1.0,9.999999747378752e-05
0.12010751664638519,0.9800000190734863,0.0001015626743901521,1.0,9.999999747378752e-05
0.1204124242067337,0.9800000190734863,8.162855257978663e-05,1.0,9.999999747378752e-05
0.12064660340547562,0.9800000190734863,7.803174055879935e-05,1.0,9.999999747378752e-05
0.1209091916680336,0.9800000190734863,8.188148320186883e-05,1.0,9.999999747378752e-05
0.12188192456960678,0.9800000190734863,0.00021403454127721488,1.0,9.999999747378752e-05
0.12269148975610733,0.9800000190734863,7.65692361164838e-05,1.0,9.999999747378752e-05
0.12319493293762207,0.9800000190734863,6.7131279502064e-05,1.0,9.999999747378752e-05
0.12348707020282745,0.9800000190734863,0.00010647127812262624,1.0,9.999999747378752e-05
0.12405417114496231,0.9800000190734863,6.3963434076868e-05,1.0,9.999999747378752e-05
0.12425316125154495,0.9800000190734863,8.278252615127712e-05,1.0,9.999999747378752e-05
0.1244589313864708,0.9800000190734863,6.677969213342294e-05,1.0,9.999999747378752e-05
0.12463293224573135,0.9800000190734863,6.854233448393643e-05,1.0,9.999999747378752e-05
0.124786376953125,0.9800000190734863,8.099101483821869e-05,1.0,9.999999747378752e-05
0.12507739663124084,0.9800000190734863,5.917906732065603e-05,1.0,9.999999747378752e-05
0.1254562884569168,0.9800000190734863,6.247599332709797e-05,1.0,9.999999747378752e-05
0.12566232681274414,0.9800000190734863,5.9189773164689544e-05,1.0,9.999999747378752e-05
0.125936359167099,0.9800000190734863,6.435787494410761e-05,1.0,9.999999747378752e-05
0.125748872756958,0.9800000190734863,8.67563538486138e-05,1.0,9.999999747378752e-05
0.12609504163265228,0.9800000190734863,7.761919987387955e-05,1.0,9.999999747378752e-05
0.12622413039207458,0.9800000190734863,6.129001485533081e-05,1.0,9.999999747378752e-05
0.12648168206214905,0.9800000190734863,7.623425975907595e-05,1.0,9.999999747378752e-05
0.1268715262413025,0.9800000190734863,7.319723066757433e-05,1.0,9.999999747378752e-05
0.12685292959213257,0.9800000190734863,8.357003214769065e-05,1.0,9.999999747378752e-05
0.1271265596151352,0.9800000190734863,8.854832383804024e-05,1.0,9.999999747378752e-05
0.12701328098773956,0.9800000190734863,5.815875294501893e-05,1.0,9.999999747378752e-05
0.12687912583351135,0.9800000190734863,6.539818219607696e-05,1.0,9.999999747378752e-05
0.12681730091571808,0.9800000190734863,6.643050350248814e-05,1.0,9.999999747378752e-05
0.1268198937177658,0.9800000190734863,6.627810857025907e-05,1.0,9.999999747378752e-05
0.12694205343723297,0.9800000190734863,5.8115828433074055e-05,1.0,9.999999747378752e-05
0.12674401700496674,0.9800000190734863,0.00011451572412624955,1.0,9.999999747378752e-05
0.12713070213794708,0.9800000190734863,7.4111248832196e-05,1.0,9.999999747378752e-05
0.1274937093257904,0.9800000190734863,0.0001539959997171536,1.0,9.999999747378752e-05
0.12714599072933197,0.9800000190734863,6.510529987281188e-05,1.0,9.999999747378752e-05
0.12701554596424103,0.9800000190734863,5.831715534441173e-05,1.0,9.999999747378752e-05
0.1270126849412918,0.9800000190734863,6.168101652292534e-05,1.0,9.999999747378752e-05
0.1267399787902832,0.9800000190734863,8.089800481684505e-05,1.0,9.999999747378752e-05
0.12669409811496735,0.9800000190734863,6.200992094818503e-05,1.0,9.999999747378752e-05
0.1265145242214203,0.9800000190734863,0.0001229643082479015,1.0,9.999999747378752e-05
0.12667612731456757,0.9800000190734863,6.754823145456612e-05,1.0,9.999999747378752e-05
0.12722472846508026,0.9800000190734863,9.872312482912094e-05,1.0,9.999999747378752e-05
0.12685205042362213,0.9800000190734863,0.0002079555974341929,1.0,9.999999747378752e-05
0.1268688440322876,0.9800000190734863,0.00010256658541038633,1.0,9.999999747378752e-05
0.12728004157543182,0.9800000190734863,5.899783718632534e-05,1.0,9.999999747378752e-05
0.12787261605262756,0.9800000190734863,9.966264071408659e-05,1.0,9.999999747378752e-05
0.1281716376543045,0.9800000190734863,5.728742078645155e-05,1.0,9.999999747378752e-05
0.1283947080373764,0.9800000190734863,5.798351747216657e-05,1.0,9.999999747378752e-05
0.12854932248592377,0.9800000190734863,6.487144419224933e-05,1.0,9.999999747378752e-05
0.1285708099603653,0.9800000190734863,7.747485040454194e-05,1.0,9.999999747378752e-05
0.12883682548999786,0.9800000190734863,5.930896091740578e-05,1.0,9.999999747378752e-05
0.12925612926483154,0.9800000190734863,7.288351305760443e-05,1.0,9.999999747378752e-05
0.1291862279176712,0.9800000190734863,7.868834189139306e-05,1.0,9.999999747378752e-05
0.12957674264907837,0.9800000190734863,0.00010451236739754677,1.0,9.999999747378752e-05
0.12988868355751038,0.9800000190734863,8.33305058768019e-05,1.0,9.999999747378752e-05
0.12988735735416412,0.9800000190734863,6.521740753669292e-05,1.0,9.999999747378752e-05
0.13030295073986053,0.9800000190734863,0.00016171040944755078,1.0,9.999999747378752e-05
0.1301412135362625,0.9800000190734863,6.20910490397364e-05,1.0,9.999999747378752e-05
0.13015669584274292,0.9800000190734863,6.131141242804005e-05,1.0,9.999999747378752e-05
0.13017691671848297,0.9800000190734863,0.00010264602140523493,1.0,9.999999747378752e-05
0.12963688373565674,0.9800000190734863,6.299685657722875e-05,1.0,9.999999747378752e-05
0.12964308261871338,0.9800000190734863,8.03278450621292e-05,1.0,9.999999747378752e-05
0.13006280362606049,0.9800000190734863,9.956903639249504e-05,1.0,9.999999747378752e-05
0.1304272711277008,0.9800000190734863,6.030422620824538e-05,1.0,9.999999747378752e-05
0.13056950271129608,0.9800000190734863,8.156439464073628e-05,1.0,9.999999747378752e-05
0.130763441324234,0.9800000190734863,9.908604086376726e-05,1.0,9.999999747378752e-05
0.1315268576145172,0.9800000190734863,0.00010803499200847,1.0,9.999999747378752e-05
0.13185817003250122,0.9800000190734863,6.157610099762679e-05,1.0,9.999999747378752e-05
0.1324048489332199,0.9800000190734863,7.120280235540122e-05,1.0,9.999999747378752e-05
0.13234838843345642,0.9800000190734863,0.000105672791833058,1.0,9.999999747378752e-05
0.1326093077659607,0.9800000190734863,6.065100053092465e-05,1.0,9.999999747378752e-05
0.13298024237155914,0.9800000190734863,7.45675090001896e-05,1.0,9.999999747378752e-05
0.1334078162908554,0.9800000190734863,7.153209269745276e-05,1.0,9.999999747378752e-05
0.13377174735069275,0.9800000190734863,0.00014646243245806546,1.0,9.999999747378752e-05
0.13362041115760803,0.9800000190734863,7.283585611730814e-05,1.0,9.999999747378752e-05
0.13334551453590393,0.9800000190734863,5.843995430041105e-05,1.0,9.999999747378752e-05
0.13301298022270203,0.9800000190734863,6.271198100876062e-05,1.0,9.999999747378752e-05
0.1324378252029419,0.9800000190734863,0.00010385968605987728,1.0,9.999999747378752e-05
0.13254521787166595,0.9800000190734863,7.60976120363921e-05,1.0,9.999999747378752e-05
0.13259892165660858,0.9800000190734863,6.103477324359119e-05,1.0,9.999999747378752e-05
0.13272497057914734,0.9800000190734863,5.9297021507518367e-05,1.0,9.999999747378752e-05
0.13277453184127808,0.9800000190734863,6.002165348036215e-05,1.0,9.999999747378752e-05
0.1328674852848053,0.9800000190734863,5.682119357516058e-05,1.0,9.999999747378752e-05
0.13309825956821442,0.9800000190734863,5.812997958855703e-05,1.0,9.999999747378752e-05
0.13284701108932495,0.9800000190734863,9.966865880414844e-05,1.0,9.999999747378752e-05
0.13271155953407288,0.9800000190734863,6.233293548575602e-05,1.0,9.999999747378752e-05
0.1327187567949295,0.9800000190734863,5.566863823332824e-05,1.0,9.999999747378752e-05
0.13295873999595642,0.9800000190734863,6.879771113744937e-05,1.0,9.999999747378752e-05
0.13286800682544708,0.9800000190734863,6.172154447995127e-05,1.0,9.999999747378752e-05
0.1326272189617157,0.9800000190734863,0.00010107459675054998,1.0,9.999999747378752e-05
0.1329442858695984,0.9800000190734863,6.897060957271606e-05,1.0,9.999999747378752e-05
0.13258016109466553,0.9800000190734863,0.00015337803633883596,1.0,9.999999747378752e-05
0.1329914778470993,0.9800000190734863,5.657915637129918e-05,1.0,9.999999747378752e-05
0.13340717554092407,0.9800000190734863,6.65783800650388e-05,1.0,9.999999747378752e-05
0.13382075726985931,0.9800000190734863,7.112680439604447e-05,1.0,9.999999747378752e-05
0.13402457535266876,0.9800000190734863,5.4357484477804976e-05,1.0,9.999999747378752e-05
0.13424330949783325,0.9800000190734863,5.63980960578192e-05,1.0,9.999999747378752e-05
0.1343795657157898,0.9800000190734863,5.4930811165831984e-05,1.0,9.999999747378752e-05
0.1346893310546875,0.9800000190734863,7.330395397730172e-05,1.0,9.999999747378752e-05
0.13476936519145966,0.9800000190734863,5.4908185265958306e-05,1.0,9.999999747378752e-05
0.1346723586320877,0.9800000190734863,6.020250351866707e-05,1.0,9.999999747378752e-05
0.13454806804656982,0.9800000190734863,7.28360190987587e-05,1.0,9.999999747378752e-05
0.13521155714988708,0.9800000190734863,9.983590425690635e-05,1.0,9.999999747378752e-05
0.13575583696365356,0.9800000190734863,7.335997099289671e-05,1.0,9.999999747378752e-05
0.13573329150676727,0.9800000190734863,5.994176084641367e-05,1.0,9.999999747378752e-05
0.13586068153381348,0.9800000190734863,5.451123724924401e-05,1.0,9.999999747378752e-05
0.13599179685115814,0.9800000190734863,5.5738904047757385e-05,1.0,9.999999747378752e-05
0.1362413763999939,0.9800000190734863,5.784516048152e-05,1.0,9.999999747378752e-05
0.13680143654346466,0.9800000190734863,8.97724079550244e-05,1.0,9.999999747378752e-05
0.13746485114097595,0.9800000190734863,9.631299559259787e-05,1.0,9.999999747378752e-05
0.13792084157466888,0.9800000190734863,5.7433851616224274e-05,1.0,9.999999747378752e-05
0.13796958327293396,0.9800000190734863,5.838278564624488e-05,1.0,9.999999747378752e-05
0.13852830231189728,0.9800000190734863,9.115754684899002e-05,1.0,9.999999747378752e-05
0.1386137455701828,0.9800000190734863,5.474006306030788e-05,1.0,9.999999747378752e-05
0.13889402151107788,0.9800000190734863,5.7798500056378546e-05,1.0,9.999999747378752e-05
0.1386822611093521,0.9800000190734863,0.00010511026601307095,1.0,9.999999747378752e-05
0.13890045881271362,0.9800000190734863,5.7517286331858483e-05,1.0,9.999999747378752e-05
0.13862687349319458,0.9800000190734863,0.00015125024365261197,1.0,9.999999747378752e-05
0.13740259408950806,0.9800000190734863,7.131011167075484e-05,1.0,9.999999747378752e-05
0.13607937097549438,0.9800000190734863,7.306837826035916e-05,1.0,9.999999747378752e-05
0.1350196897983551,0.9800000190734863,7.658604998141528e-05,1.0,9.999999747378752e-05
0.13446688652038574,0.9800000190734863,6.137412419775501e-05,1.0,9.999999747378752e-05
0.13405875861644745,0.9800000190734863,5.7258649612776934e-05,1.0,9.999999747378752e-05
0.1332843154668808,0.9800000190734863,0.00015314182732254267,1.0,9.999999747378752e-05
0.13328759372234344,0.9800000190734863,5.38651569513604e-05,1.0,9.999999747378752e-05
0.13377252221107483,0.9800000190734863,9.457494248636066e-05,1.0,9.999999747378752e-05
0.13398407399654388,0.9800000190734863,5.379597772844136e-05,1.0,9.999999747378752e-05
0.13400214910507202,0.9800000190734863,9.700890921521933e-05,1.0,9.999999747378752e-05
0.13452552258968353,0.9800000190734863,5.787590111140162e-05,1.0,9.999999747378752e-05
0.134459987282753,0.9800000190734863,9.884471306577325e-05,1.0,9.999999747378752e-05
0.13506774604320526,0.9800000190734863,9.476287727011367e-05,1.0,9.999999747378752e-05
0.13616392016410828,0.9800000190734863,0.00014360004686750472,1.0,9.999999747378752e-05
0.1366666555404663,0.9800000190734863,9.911640197969973e-05,1.0,9.999999747378752e-05
0.13745814561843872,0.9800000190734863,5.531574715860188e-05,1.0,9.999999747378752e-05
0.1379559487104416,0.9800000190734863,5.9314847749192265e-05,1.0,9.999999747378752e-05
0.13815508782863617,0.9800000190734863,6.218553404323757e-05,1.0,9.999999747378752e-05
0.1382247805595398,0.9800000190734863,7.307532127015292e-05,1.0,9.999999747378752e-05
0.13869708776474,0.9800000190734863,6.772391905542463e-05,1.0,9.999999747378752e-05
0.13903053104877472,0.9800000190734863,5.660187016474083e-05,1.0,9.999999747378752e-05
0.13928568363189697,0.9800000190734863,5.480320513015613e-05,1.0,9.999999747378752e-05
0.1394321769475937,0.9800000190734863,5.5295541387749835e-05,1.0,9.999999747378752e-05
0.13954457640647888,0.9800000190734863,5.2854351233690975e-05,1.0,9.999999747378752e-05
0.13956014811992645,0.9800000190734863,5.334180023055524e-05,1.0,9.999999747378752e-05
0.13964924216270447,0.9800000190734863,5.5388485052390024e-05,1.0,9.999999747378752e-05
0.13948942720890045,0.9800000190734863,5.778298509540036e-05,1.0,9.999999747378752e-05
0.13961517810821533,0.9800000190734863,5.59879228239879e-05,1.0,9.999999747378752e-05
0.1398419439792633,0.9800000190734863,6.653552991338074e-05,1.0,9.999999747378752e-05
0.1397697627544403,0.9800000190734863,5.738140927860513e-05,1.0,9.999999747378752e-05
0.14000189304351807,0.9800000190734863,6.75734574906528e-05,1.0,9.999999747378752e-05
0.13961344957351685,0.9800000190734863,6.840086687589065e-05,1.0,9.999999747378752e-05
0.13939201831817627,0.9800000190734863,5.2197536133462565e-05,1.0,9.999999747378752e-05
0.13932901620864868,0.9800000190734863,5.4742369684390724e-05,1.0,9.999999747378752e-05
0.13909490406513214,0.9800000190734863,7.440566259901971e-05,1.0,9.999999747378752e-05
0.139430433511734,0.9800000190734863,6.694888026686385e-05,1.0,9.999999747378752e-05
0.13898558914661407,0.9800000190734863,9.556364500895142e-05,1.0,9.999999747378752e-05
0.13907699286937714,0.9800000190734863,6.711577181704342e-05,1.0,9.999999747378752e-05
0.13870352506637573,0.9800000190734863,5.741954373661429e-05,1.0,9.999999747378752e-05
0.13884137570858002,0.9800000190734863,9.265192289603874e-05,1.0,9.999999747378752e-05
0.13851742446422577,0.9800000190734863,7.761043962091207e-05,1.0,9.999999747378752e-05
0.13856784999370575,0.9800000190734863,5.600330012384802e-05,1.0,9.999999747378752e-05
0.13843388855457306,0.9800000190734863,5.449676886200905e-05,1.0,9.999999747378752e-05
0.13803958892822266,0.9800000190734863,6.047265895176679e-05,1.0,9.999999747378752e-05
0.13814280927181244,0.9800000190734863,9.54588406602852e-05,1.0,9.999999747378752e-05
0.1379510760307312,0.9800000190734863,5.3978273790562525e-05,1.0,9.999999747378752e-05
0.137960284948349,0.9800000190734863,7.31489306781441e-05,1.0,9.999999747378752e-05
0.13775397837162018,0.9800000190734863,5.700689129298553e-05,1.0,9.999999747378752e-05
0.13775594532489777,0.9800000190734863,5.242513580014929e-05,1.0,9.999999747378752e-05
0.1376510113477707,0.9800000190734863,5.9150872693862766e-05,1.0,9.999999747378752e-05
0.13747909665107727,0.9800000190734863,6.696105818264186e-05,1.0,9.999999747378752e-05
0.13762682676315308,0.9800000190734863,5.3402616176754234e-05,1.0,9.999999747378752e-05
0.13729798793792725,0.9800000190734863,0.00010218226641882211,1.0,9.999999747378752e-05
0.1378622055053711,0.9800000190734863,8.764134108787402e-05,1.0,9.999999747378752e-05
0.13789930939674377,0.9800000190734863,6.842316710390151e-05,1.0,9.999999747378752e-05
0.13822731375694275,0.9800000190734863,5.367557983845472e-05,1.0,9.999999747378752e-05
0.1387847363948822,0.9800000190734863,9.417081833817065e-05,1.0,9.999999747378752e-05
0.13893406093120575,0.9800000190734863,5.629055434837937e-05,1.0,9.999999747378752e-05
0.13924340903759003,0.9800000190734863,5.3359645535238086e-05,1.0,9.999999747378752e-05
0.13925166428089142,0.9800000190734863,5.713475053198636e-05,1.0,9.999999747378752e-05
0.13954265415668488,0.9800000190734863,6.691773101920262e-05,1.0,9.999999747378752e-05
0.13918918371200562,0.9800000190734863,6.946655310457572e-05,1.0,9.999999747378752e-05
0.13936375081539154,0.9800000190734863,0.0001441563357366249,1.0,9.999999747378752e-05
0.13890138268470764,0.9800000190734863,5.664813565090299e-05,1.0,9.999999747378752e-05
0.13827376067638397,0.9800000190734863,6.983874249272048e-05,1.0,9.999999747378752e-05
0.13805244863033295,0.9800000190734863,5.042621894972399e-05,1.0,9.999999747378752e-05
0.13769550621509552,0.9800000190734863,6.728888256475329e-05,1.0,9.999999747378752e-05
0.13756899535655975,0.9800000190734863,5.675047839758918e-05,1.0,9.999999747378752e-05
0.13802525401115417,0.9800000190734863,0.00012669486925005912,1.0,9.999999747378752e-05
0.13782472908496857,0.9800000190734863,5.001260389690288e-05,1.0,9.999999747378752e-05
0.13767148554325104,0.9800000190734863,5.005550861824304e-05,1.0,9.999999747378752e-05
0.13748528063297272,0.9800000190734863,5.092684499686584e-05,1.0,9.999999747378752e-05
0.13768629729747772,0.9800000190734863,0.00013201220892369747,1.0,9.999999747378752e-05
0.1372823864221573,0.9800000190734863,5.349067287170328e-05,1.0,9.999999747378752e-05
0.13647109270095825,0.9800000190734863,9.127769793849438e-05,1.0,9.999999747378752e-05
0.13652563095092773,0.9800000190734863,9.187879593810067e-05,1.0,9.999999747378752e-05
0.1367294192314148,0.9800000190734863,8.78173764795065e-05,1.0,9.999999747378752e-05
0.13681642711162567,0.9800000190734863,5.541698890738189e-05,1.0,9.999999747378752e-05
0.13674265146255493,0.9800000190734863,0.00015656942967325448,1.0,9.999999747378752e-05
0.1377476155757904,0.9800000190734863,5.207341615459882e-05,1.0,9.999999747378752e-05
0.13816089928150177,0.9800000190734863,6.887137627927587e-05,1.0,9.999999747378752e-05
0.1389332413673401,0.9800000190734863,9.827381640207023e-05,1.0,9.999999747378752e-05
0.1391858607530594,0.9800000190734863,5.404135270509869e-05,1.0,9.999999747378752e-05
0.13916510343551636,0.9800000190734863,4.934030439471826e-05,1.0,9.999999747378752e-05
0.13900595903396606,0.9800000190734863,5.408902128692717e-05,1.0,9.999999747378752e-05
0.13853907585144043,0.9800000190734863,9.158847795333714e-05,1.0,9.999999747378752e-05
0.1383996307849884,0.9800000190734863,5.491363117471337e-05,1.0,9.999999747378752e-05
0.13822349905967712,0.9800000190734863,5.72680750337895e-05,1.0,9.999999747378752e-05
0.13857132196426392,0.9800000190734863,0.00013513193931430578,1.0,9.999999747378752e-05
0.13878609240055084,0.9800000190734863,6.409758294466883e-05,1.0,9.999999747378752e-05
0.13900510966777802,0.9800000190734863,6.884243921376765e-05,1.0,9.999999747378752e-05
0.13835285604000092,0.9800000190734863,9.042054123710841e-05,1.0,9.999999747378752e-05
0.13819850981235504,0.9800000190734863,5.2218836062820626e-05,1.0,9.999999747378752e-05
0.13791845738887787,0.9800000190734863,4.872046512900852e-05,1.0,9.999999747378752e-05
0.13706852495670319,0.9800000190734863,0.0001456503279041499,1.0,9.999999747378752e-05
0.13652288913726807,0.9800000190734863,9.127416473347693e-05,1.0,9.999999747378752e-05
0.13596895337104797,0.9800000190734863,9.174766950309276e-05,1.0,9.999999747378752e-05
0.135555237531662,0.9800000190734863,5.4028154991101474e-05,1.0,9.999999747378752e-05
0.13547153770923615,0.9800000190734863,0.0001374571945052594,1.0,9.999999747378752e-05
0.13497446477413177,0.9800000190734863,5.129628669237718e-05,1.0,9.999999747378752e-05
0.134372279047966,0.9800000190734863,5.4389500874094666e-05,1.0,9.999999747378752e-05
0.13388226926326752,0.9800000190734863,5.300441785948351e-05,1.0,9.999999747378752e-05
0.13359348475933075,0.9800000190734863,4.860602610278875e-05,1.0,9.999999747378752e-05
0.13340364396572113,0.9800000190734863,4.8483280115760865e-05,1.0,9.999999747378752e-05
0.1331668347120285,0.9800000190734863,5.3994727495592086e-05,1.0,9.999999747378752e-05
0.1331537812948227,0.9800000190734863,4.80255285219755e-05,1.0,9.999999747378752e-05
0.13341094553470612,0.9800000190734863,6.374602016876452e-05,1.0,9.999999747378752e-05
0.1335047483444214,0.9800000190734863,5.118664528708905e-05,1.0,9.999999747378752e-05
0.13338232040405273,0.9800000190734863,5.330122221494094e-05,1.0,9.999999747378752e-05
0.13361619412899017,0.9800000190734863,6.0604252212215215e-05,1.0,9.999999747378752e-05
0.1337987333536148,0.9800000190734863,5.061090836534277e-05,1.0,9.999999747378752e-05
0.13362225890159607,0.9800000190734863,6.700017402181402e-05,1.0,9.999999747378752e-05
0.13371999561786652,0.9800000190734863,4.806363955140114e-05,1.0,9.999999747378752e-05
0.13418781757354736,0.9800000190734863,6.515941204270348e-05,1.0,9.999999747378752e-05
0.13502663373947144,0.9800000190734863,9.788815397769212e-05,1.0,9.999999747378752e-05
0.13571079075336456,0.9800000190734863,4.9900443118531255e-05,1.0,9.999999747378752e-05
0.13619710505008698,0.9800000190734863,0.00013051322428509594,1.0,9.999999747378752e-05
0.13616102933883667,0.9800000190734863,8.815459877951071e-05,1.0,9.999999747378752e-05
0.13583217561244965,0.9800000190734863,5.264426115900278e-05,1.0,9.999999747378752e-05
0.13598676025867462,0.9800000190734863,6.158984746434726e-05,1.0,9.999999747378752e-05
0.1360861361026764,0.9800000190734863,5.861605444806628e-05,1.0,9.999999747378752e-05
0.1360839605331421,0.9800000190734863,5.2071150712436065e-05,1.0,9.999999747378752e-05
0.13641776144504547,0.9800000190734863,0.00014406444621272384,1.0,9.999999747378752e-05
0.1362742781639099,0.9800000190734863,5.028303770814091e-05,1.0,9.999999747378752e-05
0.13656550645828247,0.9800000190734863,8.435115276370198e-05,1.0,9.999999747378752e-05
0.1368221640586853,0.9800000190734863,4.922813386656344e-05,1.0,9.999999747378752e-05
0.13758796453475952,0.9800000190734863,8.463951555313542e-05,1.0,9.999999747378752e-05
0.13808760046958923,0.9800000190734863,4.727688734419644e-05,1.0,9.999999747378752e-05
0.13863176107406616,0.9800000190734863,4.911012627417222e-05,1.0,9.999999747378752e-05
0.13897918164730072,0.9800000190734863,5.1287872774992135e-05,1.0,9.999999747378752e-05
0.1390552967786789,0.9800000190734863,6.67766307014972e-05,1.0,9.999999747378752e-05
0.13913105428218842,0.9800000190734863,5.280147190205753e-05,1.0,9.999999747378752e-05
0.13924238085746765,0.9800000190734863,5.18148198898416e-05,1.0,9.999999747378752e-05
0.1393362283706665,0.9800000190734863,4.917306621791795e-05,1.0,9.999999747378752e-05
0.1395525485277176,0.9800000190734863,4.9311514012515544e-05,1.0,9.999999747378752e-05
0.1397009789943695,0.9800000190734863,5.047606784501113e-05,1.0,9.999999747378752e-05
0.1398424506187439,0.9800000190734863,4.925434259348549e-05,1.0,9.999999747378752e-05
0.13953770697116852,0.9800000190734863,9.173725033178925e-05,1.0,9.999999747378752e-05
0.13913974165916443,0.9800000190734863,0.00013201031601056456,1.0,9.999999747378752e-05
0.139709934592247,0.9800000190734863,8.19402193883434e-05,1.0,9.999999747378752e-05
0.13987497985363007,0.9800000190734863,5.171464479644783e-05,1.0,9.999999747378752e-05
0.13985972106456757,0.9800000190734863,6.363148160744459e-05,1.0,9.999999747378752e-05
0.13960474729537964,0.9800000190734863,8.875763509422541e-05,1.0,9.999999747378752e-05
0.13986460864543915,0.9800000190734863,5.846469575772062e-05,1.0,9.999999747378752e-05
0.14008338749408722,0.9800000190734863,4.906248257611878e-05,1.0,9.999999747378752e-05
0.13985298573970795,0.9800000190734863,6.169733649585396e-05,1.0,9.999999747378752e-05
0.13967619836330414,0.9800000190734863,5.1569189090514555e-05,1.0,9.999999747378752e-05
0.13978897035121918,0.9800000190734863,8.491615124512464e-05,1.0,9.999999747378752e-05
0.14012601971626282,0.9800000190734863,0.00020148530835285784,1.0,9.999999747378752e-05
0.14113393425941467,0.9800000190734863,0.00012373670761007817,1.0,9.999999747378752e-05
0.1416311115026474,0.9800000190734863,6.464700098149479e-05,1.0,9.999999747378752e-05
0.1423034369945526,0.9800000190734863,4.808025638340041e-05,1.0,9.999999747378752e-05
0.14288419485092163,0.9800000190734863,4.8285274824593214e-05,1.0,9.999999747378752e-05
0.1434357464313507,0.9800000190734863,0.00034620051272213456,1.0,9.999999747378752e-05
0.1461157649755478,0.9800000190734863,7.923328899778426e-05,1.0,9.999999747378752e-05
0.14768929779529572,0.9800000190734863,0.0001529469876550138,1.0,9.999999747378752e-05
0.14946338534355164,0.9800000190734863,9.231583739165217e-05,1.0,9.999999747378752e-05
0.15059241652488708,0.9800000190734863,0.000123861757456325,1.0,9.999999747378752e-05
0.15204809606075287,0.9800000190734863,6.209259940078483e-05,1.0,9.999999747378752e-05
0.15276573598384857,0.9800000190734863,4.8779973294585946e-05,1.0,9.999999747378752e-05
0.15296411514282227,0.9800000190734863,4.849029530305416e-05,1.0,9.999999747378752e-05
0.15329815447330475,0.9800000190734863,6.086508044973016e-05,1.0,9.999999747378752e-05
0.15304860472679138,0.9800000190734863,4.9750253674574195e-05,1.0,9.999999747378752e-05
0.1525650918483734,0.9800000190734863,4.715412127552554e-05,1.0,9.999999747378752e-05
0.1511877477169037,0.9800000190734863,0.00012789926258847118,1.0,9.999999747378752e-05
0.15047171711921692,0.9800000190734863,4.748673469293863e-05,1.0,9.999999747378752e-05
0.14921215176582336,0.9800000190734863,6.438259209971875e-05,1.0,9.999999747378752e-05
0.1484907567501068,0.9800000190734863,6.096978351706639e-05,1.0,9.999999747378752e-05
0.14688819646835327,0.9800000190734863,9.756942105013877e-05,1.0,9.999999747378752e-05
0.14581149816513062,0.9800000190734863,5.065484612714499e-05,1.0,9.999999747378752e-05
0.14507721364498138,0.9800000190734863,4.841995018068701e-05,1.0,9.999999747378752e-05
0.14393627643585205,0.9800000190734863,6.20297942077741e-05,1.0,9.999999747378752e-05
0.14288760721683502,0.9800000190734863,6.306198512902484e-05,1.0,9.999999747378752e-05
0.14240379631519318,0.9800000190734863,6.218276190338657e-05,1.0,9.999999747378752e-05
0.14096049964427948,0.9800000190734863,0.00012632611906155945,1.0,9.999999747378752e-05
0.1403709053993225,0.9800000190734863,4.8835922789294273e-05,1.0,9.999999747378752e-05
0.13964171707630157,0.9800000190734863,6.067800306482241e-05,1.0,9.999999747378752e-05
0.1391676515340805,0.9800000190734863,4.4563899136846886e-05,1.0,9.999999747378752e-05
0.1388862431049347,0.9800000190734863,0.00011514946178067475,1.0,9.999999747378752e-05
0.13808602094650269,0.9800000190734863,5.688533710781485e-05,1.0,9.999999747378752e-05
0.13710390031337738,0.9800000190734863,4.9340177793055775e-05,1.0,9.999999747378752e-05
0.13699334859848022,0.9800000190734863,6.308008451014758e-05,1.0,9.999999747378752e-05
0.1369946151971817,0.9800000190734863,4.531723097898066e-05,1.0,9.999999747378752e-05
0.13679586350917816,0.9800000190734863,4.9253139150096106e-05,1.0,9.999999747378752e-05
0.13694411516189575,0.9800000190734863,4.601811830070801e-05,1.0,9.999999747378752e-05
0.13687343895435333,0.9800000190734863,5.9765117475762965e-05,1.0,9.999999747378752e-05
0.13699570298194885,0.9800000190734863,4.5230156683828684e-05,1.0,9.999999747378752e-05
0.13720901310443878,0.9800000190734863,4.398337187012657e-05,1.0,9.999999747378752e-05
0.13777555525302887,0.9800000190734863,7.70029952400364e-05,1.0,9.999999747378752e-05
0.13802029192447662,0.9800000190734863,4.433139809407294e-05,1.0,9.999999747378752e-05
0.13816231489181519,0.9800000190734863,4.3830759677803145e-05,1.0,9.999999747378752e-05
0.13838249444961548,0.9800000190734863,4.40107642498333e-05,1.0,9.999999747378752e-05
0.13982872664928436,0.9800000190734863,0.00017256850842386484,1.0,9.999999747378752e-05
0.14096449315547943,0.9800000190734863,6.0474182246252897e-05,1.0,9.999999747378752e-05
0.14213256537914276,0.9800000190734863,4.630058363545686e-05,1.0,9.999999747378752e-05
0.1429760605096817,0.9800000190734863,4.4840410992037506e-05,1.0,9.999999747378752e-05
0.14335064589977264,0.9800000190734863,7.895913033280522e-05,1.0,9.999999747378752e-05
0.1442727893590927,0.9800000190734863,8.037700492423027e-05,1.0,9.999999747378752e-05
0.14429235458374023,0.9800000190734863,0.00020309014595113695,1.0,9.999999747378752e-05
0.14247040450572968,0.9800000190734863,7.802521897247061e-05,1.0,9.999999747378752e-05
0.14109940826892853,0.9800000190734863,6.004725699312985e-05,1.0,9.999999747378752e-05
0.1400938630104065,0.9800000190734863,4.335513993282802e-05,1.0,9.999999747378752e-05
0.13874483108520508,0.9800000190734863,0.0001177515956806019,1.0,9.999999747378752e-05
0.13786433637142181,0.9800000190734863,4.7888238477753474e-05,1.0,9.999999747378752e-05
0.13709257543087006,0.9800000190734863,4.7642592689953745e-05,1.0,9.999999747378752e-05
0.13634829223155975,0.9800000190734863,6.151060457341372e-05,1.0,9.999999747378752e-05
0.13601452112197876,0.9800000190734863,4.2855671053985134e-05,1.0,9.999999747378752e-05
0.13636600971221924,0.9800000190734863,8.075207908404991e-05,1.0,9.999999747378752e-05
0.13673736155033112,0.9800000190734863,4.624813431291841e-05,1.0,9.999999747378752e-05
0.13730105757713318,0.9800000190734863,4.646145927836187e-05,1.0,9.999999747378752e-05
0.13782763481140137,0.9800000190734863,4.532909311819822e-05,1.0,9.999999747378752e-05
0.1380677968263626,0.9800000190734863,4.297368752304464e-05,1.0,9.999999747378752e-05
0.13762855529785156,0.9800000190734863,0.00018355261301621794,1.0,9.999999747378752e-05
0.13561826944351196,0.9800000190734863,4.241942471708171e-05,1.0,9.999999747378752e-05
0.13425232470035553,0.9800000190734863,4.5102633739588784e-05,1.0,9.999999747378752e-05
0.13307033479213715,0.9800000190734863,5.9852616977877915e-05,1.0,9.999999747378752e-05
0.13213209807872772,0.9800000190734863,8.024479204323143e-05,1.0,9.999999747378752e-05
0.13193047046661377,0.9800000190734863,4.500725102843717e-05,1.0,9.999999747378752e-05
0.13218311965465546,0.9800000190734863,5.5917102145031095e-05,1.0,9.999999747378752e-05
0.13230901956558228,0.9800000190734863,4.199148010229692e-05,1.0,9.999999747378752e-05
0.13217024505138397,0.9800000190734863,8.380859391763806e-05,1.0,9.999999747378752e-05
0.13257481157779694,0.9800000190734863,4.2010542820207775e-05,1.0,9.999999747378752e-05
0.1328778862953186,0.9800000190734863,4.33835967851337e-05,1.0,9.999999747378752e-05
0.13346131145954132,0.9800000190734863,7.553805073257536e-05,1.0,9.999999747378752e-05
0.13380810618400574,0.9800000190734863,5.764653498772532e-05,1.0,9.999999747378752e-05
0.13380447030067444,0.9800000190734863,4.161720775300637e-05,1.0,9.999999747378752e-05
0.13375838100910187,0.9800000190734863,4.2032024939544496e-05,1.0,9.999999747378752e-05
0.13387903571128845,0.9800000190734863,4.334680241299793e-05,1.0,9.999999747378752e-05
0.1340504288673401,0.9800000190734863,4.4481540680862966e-05,1.0,9.999999747378752e-05
0.13446132838726044,0.9800000190734863,7.144194911234081e-05,1.0,9.999999747378752e-05
0.13479328155517578,0.9800000190734863,6.052014708984643e-05,1.0,9.999999747378752e-05
0.13509809970855713,0.9800000190734863,4.415728384628892e-05,1.0,9.999999747378752e-05
0.13538970053195953,0.9800000190734863,4.715991351986304e-05,1.0,9.999999747378752e-05
0.13552957773208618,0.9800000190734863,4.191277548670769e-05,1.0,9.999999747378752e-05
0.13550397753715515,0.9800000190734863,0.00010995122836902737,1.0,9.999999747378752e-05
0.13569775223731995,0.9800000190734863,5.927454563789069e-05,1.0,9.999999747378752e-05
0.13593780994415283,0.9800000190734863,5.767637107055634e-05,1.0,9.999999747378752e-05
0.13605567812919617,0.9800000190734863,5.6332011881750075e-05,1.0,9.999999747378752e-05
0.1362026184797287,0.9800000190734863,4.564738264889456e-05,1.0,9.999999747378752e-05
0.13670934736728668,0.9800000190734863,5.3094662143848835e-05,1.0,9.999999747378752e-05
0.13710924983024597,0.9800000190734863,4.3369394697947426e-05,1.0,9.999999747378752e-05
0.1369321048259735,0.9800000190734863,8.819670358207077e-05,1.0,9.999999747378752e-05
0.1370455026626587,0.9800000190734863,4.5991813822183756e-05,1.0,9.999999747378752e-05
0.13745105266571045,0.9800000190734863,4.2613673285814e-05,1.0,9.999999747378752e-05
0.13762697577476501,0.9800000190734863,4.185551559203304e-05,1.0,9.999999747378752e-05
0.13736368715763092,0.9800000190734863,0.0001040316780563444,1.0,9.999999747378752e-05
0.13714931905269623,0.9800000190734863,5.508647678652778e-05,1.0,9.999999747378752e-05
0.13727079331874847,0.9800000190734863,4.320494292187504e-05,1.0,9.999999747378752e-05
0.1370025873184204,0.9800000190734863,5.9571537713054566e-05,1.0,9.999999747378752e-05
0.1372363120317459,0.9800000190734863,5.625550460536033e-05,1.0,9.999999747378752e-05
0.13714802265167236,0.9800000190734863,4.722753743408248e-05,1.0,9.999999747378752e-05
0.13794025778770447,0.9800000190734863,7.324516860535369e-05,1.0,9.999999747378752e-05
0.13874100148677826,0.9800000190734863,4.333122735260986e-05,1.0,9.999999747378752e-05
0.13836054503917694,0.9800000190734863,0.00011877154523972422,1.0,9.999999747378752e-05
0.13840645551681519,0.9800000190734863,7.262062281370163e-05,1.0,9.999999747378752e-05
0.13776054978370667,0.9800000190734863,4.4325440539978446e-05,1.0,9.999999747378752e-05
0.13762731850147247,0.9800000190734863,6.774121371563524e-05,1.0,9.999999747378752e-05
0.13701052963733673,0.9800000190734863,4.7438531182706357e-05,1.0,9.999999747378752e-05
0.13658256828784943,0.9800000190734863,4.430279135704041e-05,1.0,9.999999747378752e-05
0.1367291510105133,0.9800000190734863,5.3387861262308436e-05,1.0,9.999999747378752e-05
0.1364215910434723,0.9800000190734863,5.434850027086213e-05,1.0,9.999999747378752e-05
0.1363220065832138,0.9800000190734863,4.0779220871627334e-05,1.0,9.999999747378752e-05
0.13610906898975372,0.9800000190734863,4.490822073421441e-05,1.0,9.999999747378752e-05
0.13595663011074066,0.9800000190734863,0.00016926015377976,1.0,9.999999747378752e-05
0.13440541923046112,0.9800000190734863,4.722508194390684e-05,1.0,9.999999747378752e-05
0.1339753419160843,0.9800000190734863,0.00010182709316723048,1.0,9.999999747378752e-05
0.13332661986351013,0.9800000190734863,4.4588812306756155e-05,1.0,9.999999747378752e-05
0.13360720872879028,0.9800000190734863,0.00025525684701278807,1.0,9.999999747378752e-05
0.13377320766448975,0.9800000190734863,0.00011112119304016233,1.0,9.999999747378752e-05
0.1329924613237381,0.9800000190734863,0.00010909864970017225,1.0,9.999999747378752e-05
0.13241742551326752,0.9800000190734863,5.441293440526351e-05,1.0,9.999999747378752e-05
0.1321251541376114,0.9800000190734863,0.00015875105396844446,1.0,9.999999747378752e-05
0.13395607471466064,0.9800000190734863,0.00013084965059533715,1.0,9.999999747378752e-05
0.1360747367143631,0.9800000190734863,6.992318027187139e-05,1.0,9.999999747378752e-05
0.1372501254081726,0.9800000190734863,4.014381265733391e-05,1.0,9.999999747378752e-05
0.1379765272140503,0.9800000190734863,5.567768152104691e-05,1.0,9.999999747378752e-05
0.1388751119375229,0.9800000190734863,6.73669132811483e-05,1.0,9.999999747378752e-05
0.13919754326343536,0.9800000190734863,7.411718746880069e-05,1.0,9.999999747378752e-05
0.13879722356796265,0.9800000190734863,3.988515847595409e-05,1.0,9.999999747378752e-05
0.13859647512435913,0.9800000190734863,4.142639591009356e-05,1.0,9.999999747378752e-05
0.13806289434432983,0.9800000190734863,5.557713971938938e-05,1.0,9.999999747378752e-05
0.1378164291381836,0.9800000190734863,4.225252865580842e-05,1.0,9.999999747378752e-05
0.13786566257476807,0.9800000190734863,5.2268474828451875e-05,1.0,9.999999747378752e-05
0.1374322921037674,0.9800000190734863,3.923550495528616e-05,1.0,9.999999747378752e-05
0.13715718686580658,0.9800000190734863,4.214281841996126e-05,1.0,9.999999747378752e-05
0.1367337852716446,0.9800000190734863,4.3555261800065634e-05,1.0,9.999999747378752e-05
0.13599489629268646,0.9800000190734863,7.243576401378959e-05,1.0,9.999999747378752e-05
0.135776549577713,0.9800000190734863,4.969630143023096e-05,1.0,9.999999747378752e-05
0.13541536033153534,0.9800000190734863,4.179588388069533e-05,1.0,9.999999747378752e-05
0.13463538885116577,0.9800000190734863,7.23819964332506e-05,1.0,9.999999747378752e-05
0.13429680466651917,0.9800000190734863,4.108900677238125e-05,1.0,9.999999747378752e-05
0.13401655852794647,0.9800000190734863,3.8550102763110774e-05,1.0,9.999999747378752e-05
0.1340479999780655,0.9800000190734863,7.620559481438249e-05,1.0,9.999999747378752e-05
0.13419321179389954,0.9800000190734863,0.00012864595162682236,1.0,9.999999747378752e-05
0.13381998240947723,0.9800000190734863,3.8607305759796874e-05,1.0,9.999999747378752e-05
0.13377302885055542,0.9800000190734863,5.033756431657821e-05,1.0,9.999999747378752e-05
0.1340298354625702,0.9800000190734863,6.772083579562605e-05,1.0,9.999999747378752e-05
0.1342446357011795,0.9800000190734863,0.0001113760907901451,1.0,9.999999747378752e-05
0.13392239809036255,0.9800000190734863,3.876703965943307e-05,1.0,9.999999747378752e-05
0.13342057168483734,0.9800000190734863,5.929847771767527e-05,1.0,9.999999747378752e-05
0.1341111660003662,0.9800000190734863,0.00010838635731488466,1.0,9.999999747378752e-05
0.13454660773277283,0.9800000190734863,3.835336174233817e-05,1.0,9.999999747378752e-05
0.13496403396129608,0.9800000190734863,3.820678815827705e-05,1.0,9.999999747378752e-05
0.13545411825180054,0.9800000190734863,4.1142611880786714e-05,1.0,9.999999747378752e-05
0.1357955038547516,0.9800000190734863,4.021410466521047e-05,1.0,9.999999747378752e-05
0.13608141243457794,0.9800000190734863,3.937970126571599e-05,1.0,9.999999747378752e-05
0.1363706737756729,0.9800000190734863,4.031903983559459e-05,1.0,9.999999747378752e-05
0.13629978895187378,0.9800000190734863,7.069087267154828e-05,1.0,9.999999747378752e-05
0.13686272501945496,0.9800000190734863,4.737795548862778e-05,1.0,9.999999747378752e-05
0.1373068392276764,0.9800000190734863,4.026171562145464e-05,1.0,9.999999747378752e-05
0.13767153024673462,0.9800000190734863,0.0002525456272996962,1.0,9.999999747378752e-05
0.14056633412837982,0.9800000190734863,0.00011545446992386132,1.0,9.999999747378752e-05
0.14226505160331726,0.9800000190734863,0.0001499319716822356,1.0,9.999999747378752e-05
0.14386975765228271,0.9800000190734863,9.692013903986663e-05,1.0,9.999999747378752e-05
0.14444804191589355,0.9800000190734863,3.752973061637022e-05,1.0,9.999999747378752e-05
0.14452755451202393,0.9800000190734863,5.410868150647729e-05,1.0,9.999999747378752e-05
0.14486943185329437,0.9800000190734863,4.7687798796687276e-05,1.0,9.999999747378752e-05
0.1449437439441681,0.9800000190734863,4.028918076073751e-05,1.0,9.999999747378752e-05
0.14481866359710693,0.9800000190734863,3.7222208338789644e-05,1.0,9.999999747378752e-05
0.1446404904127121,0.9800000190734863,3.984100490924902e-05,1.0,9.999999747378752e-05
0.1440766304731369,0.9800000190734863,4.173874258412979e-05,1.0,9.999999747378752e-05
0.1436406373977661,0.9800000190734863,3.751662123249844e-05,1.0,9.999999747378752e-05
0.14259226620197296,0.9800000190734863,0.00010150429734494537,1.0,9.999999747378752e-05
0.14220285415649414,0.9800000190734863,3.713874102686532e-05,1.0,9.999999747378752e-05
0.14115814864635468,0.9800000190734863,6.967691238969564e-05,1.0,9.999999747378752e-05
0.1403028666973114,0.9800000190734863,4.140848046517931e-05,1.0,9.999999747378752e-05
0.13965456187725067,0.9800000190734863,4.101993821677752e-05,1.0,9.999999747378752e-05
0.13926300406455994,0.9800000190734863,3.801843136898242e-05,1.0,9.999999747378752e-05
0.1389976143836975,0.9800000190734863,3.858940821373835e-05,1.0,9.999999747378752e-05
0.13856378197669983,0.9800000190734863,4.107827524421737e-05,1.0,9.999999747378752e-05
0.137806698679924,0.9800000190734863,7.093773630913347e-05,1.0,9.999999747378752e-05
0.13735149800777435,0.9800000190734863,5.042568256612867e-05,1.0,9.999999747378752e-05
0.13687172532081604,0.9800000190734863,7.093826570780948e-05,1.0,9.999999747378752e-05
0.13661716878414154,0.9800000190734863,5.313602538080886e-05,1.0,9.999999747378752e-05
0.13683614134788513,0.9800000190734863,6.471220054663717e-05,1.0,9.999999747378752e-05
0.13639572262763977,0.9800000190734863,4.074334472534247e-05,1.0,9.999999747378752e-05
0.13593357801437378,0.9800000190734863,5.0716543628368525e-05,1.0,9.999999747378752e-05
0.13588549196720123,0.9800000190734863,4.72252065083012e-05,1.0,9.999999747378752e-05
0.1355748176574707,0.9800000190734863,3.661186507088132e-05,1.0,9.999999747378752e-05
0.13573724031448364,0.9800000190734863,4.818248824449256e-05,1.0,9.999999747378752e-05
0.1355435699224472,0.9800000190734863,5.215130426222458e-05,1.0,9.999999747378752e-05
0.13540835678577423,0.9800000190734863,6.719145487295464e-05,1.0,9.999999747378752e-05
0.13564689457416534,0.9800000190734863,3.903873322997242e-05,1.0,9.999999747378752e-05
0.13587473332881927,0.9800000190734863,3.801006445428357e-05,1.0,9.999999747378752e-05
0.1356297731399536,0.9800000190734863,7.830244372598827e-05,1.0,9.999999747378752e-05
0.1358918845653534,0.9800000190734863,4.8305106320185585e-05,1.0,9.999999747378752e-05
0.13628052175045013,0.9800000190734863,6.412704708054662e-05,1.0,9.999999747378752e-05
0.13636328279972076,0.9800000190734863,6.569512624992058e-05,1.0,9.999999747378752e-05
0.13600216805934906,0.9800000190734863,4.7897452459437774e-05,1.0,9.999999747378752e-05
0.13574035465717316,0.9800000190734863,4.9392137443646786e-05,1.0,9.999999747378752e-05
0.13579493761062622,0.9800000190734863,4.141553785302676e-05,1.0,9.999999747378752e-05
0.13599595427513123,0.9800000190734863,3.629835031460971e-05,1.0,9.999999747378752e-05
0.1363014578819275,0.9800000190734863,3.7988575641065836e-05,1.0,9.999999747378752e-05
0.13644228875637054,0.9800000190734863,3.55378350650426e-05,1.0,9.999999747378752e-05
0.1365247219800949,0.9800000190734863,3.9962415467016396e-05,1.0,9.999999747378752e-05
0.13671641051769257,0.9800000190734863,3.541864032740705e-05,1.0,9.999999747378752e-05
0.1368671953678131,0.9800000190734863,3.561651450581849e-05,1.0,9.999999747378752e-05
0.13739509880542755,0.9800000190734863,6.785145291360095e-05,1.0,9.999999747378752e-05
0.13754230737686157,0.9800000190734863,3.859537449898198e-05,1.0,9.999999747378752e-05
0.13782158493995667,0.9800000190734863,3.5647530166897924e-05,1.0,9.999999747378752e-05
0.13790690898895264,0.9800000190734863,3.7661998358089474e-05,1.0,9.999999747378752e-05
0.13779214024543762,0.9800000190734863,4.858412139583379e-05,1.0,9.999999747378752e-05
0.1380176842212677,0.9800000190734863,3.5248180793132634e-05,1.0,9.999999747378752e-05
0.13828618824481964,0.9800000190734863,3.7315146764740346e-05,1.0,9.999999747378752e-05
0.1378679871559143,0.9800000190734863,5.188789131352678e-05,1.0,9.999999747378752e-05
0.13777810335159302,0.9800000190734863,3.715778177138418e-05,1.0,9.999999747378752e-05
0.1373228132724762,0.9800000190734863,5.110721889650449e-05,1.0,9.999999747378752e-05
0.13693413138389587,0.9800000190734863,3.856430368614383e-05,1.0,9.999999747378752e-05
0.13700520992279053,0.9800000190734863,4.6040299494052306e-05,1.0,9.999999747378752e-05
0.13681982457637787,0.9800000190734863,3.851792949717492e-05,1.0,9.999999747378752e-05
0.13688357174396515,0.9800000190734863,3.675965781440027e-05,1.0,9.999999747378752e-05
0.13672377169132233,0.9800000190734863,4.8012120532803235e-05,1.0,9.999999747378752e-05
0.1369808316230774,0.9800000190734863,6.416610791347921e-05,1.0,9.999999747378752e-05
0.13633005321025848,0.9800000190734863,6.91525114234537e-05,1.0,9.999999747378752e-05
0.1359463483095169,0.9800000190734863,4.006253366242163e-05,1.0,9.999999747378752e-05
0.13550929725170135,0.9800000190734863,4.962338018231094e-05,1.0,9.999999747378752e-05
0.135122150182724,0.9800000190734863,4.688809814979322e-05,1.0,9.999999747378752e-05
0.13522589206695557,0.9800000190734863,3.714937178301625e-05,1.0,9.999999747378752e-05
0.13504914939403534,0.9800000190734863,3.8560762477573006e-05,1.0,9.999999747378752e-05
0.1349119246006012,0.9800000190734863,4.693445865996182e-05,1.0,9.999999747378752e-05
0.1352207064628601,0.9800000190734863,6.171943619847298e-05,1.0,9.999999747378752e-05
0.1349714994430542,0.9800000190734863,4.003175417892635e-05,1.0,9.999999747378752e-05
0.13471955060958862,0.9800000190734863,3.837721189484e-05,1.0,9.999999747378752e-05
0.13415178656578064,0.9800000190734863,6.391025031916797e-05,1.0,9.999999747378752e-05
0.1340605616569519,0.9800000190734863,3.599553820095025e-05,1.0,9.999999747378752e-05
0.13362671434879303,0.9800000190734863,4.5995218242751436e-05,1.0,9.999999747378752e-05
0.13325367867946625,0.9800000190734863,4.847785487072542e-05,1.0,9.999999747378752e-05
0.13313904404640198,0.9800000190734863,3.872529996442609e-05,1.0,9.999999747378752e-05
0.13300910592079163,0.9800000190734863,4.688440341851674e-05,1.0,9.999999747378752e-05
0.13269081711769104,0.9800000190734863,0.00015539335552603006,1.0,9.999999747378752e-05
0.1331617534160614,0.9800000190734863,3.441255990765057e-05,1.0,9.999999747378752e-05
0.13332875072956085,0.9800000190734863,4.840965324547142e-05,1.0,9.999999747378752e-05
0.13386815786361694,0.9800000190734863,4.540143927442841e-05,1.0,9.999999747378752e-05
0.13387231528759003,0.9800000190734863,3.8387970271287486e-05,1.0,9.999999747378752e-05
0.13386555016040802,0.9800000190734863,3.746051908819936e-05,1.0,9.999999747378752e-05
0.13439014554023743,0.9800000190734863,6.600825698114931e-05,1.0,9.999999747378752e-05
0.13461723923683167,0.9800000190734863,3.3870198822114614e-05,1.0,9.999999747378752e-05
0.13444650173187256,0.9800000190734863,6.33882253896445e-05,1.0,9.999999747378752e-05
0.13456284999847412,0.9800000190734863,3.772034440771677e-05,1.0,9.999999747378752e-05
0.13478779792785645,0.9800000190734863,3.397391061298549e-05,1.0,9.999999747378752e-05
0.1352575570344925,0.9800000190734863,6.212028820300475e-05,1.0,9.999999747378752e-05
0.13427001237869263,0.9800000190734863,0.00015650333371013402,1.0,9.999999747378752e-05
0.13405674695968628,0.9800000190734863,3.3752187009667976e-05,1.0,9.999999747378752e-05
0.13404856622219086,0.9800000190734863,4.822022747248411e-05,1.0,9.999999747378752e-05
0.13381342589855194,0.9800000190734863,3.5643895680550484e-05,1.0,9.999999747378752e-05
0.1336461305618286,0.9800000190734863,3.526722328388132e-05,1.0,9.999999747378752e-05
0.13333803415298462,0.9800000190734863,3.7027874495834114e-05,1.0,9.999999747378752e-05
0.1331908255815506,0.9800000190734863,3.363657160662115e-05,1.0,9.999999747378752e-05
0.13302014768123627,0.9800000190734863,3.880858697812073e-05,1.0,9.999999747378752e-05
0.13306929171085358,0.9800000190734863,3.382251015864313e-05,1.0,9.999999747378752e-05
0.13500505685806274,0.9800000190734863,0.00018593570217490196,1.0,9.999999747378752e-05
0.136978417634964,0.9800000190734863,6.19698193622753e-05,1.0,9.999999747378752e-05
0.1386559158563614,0.9800000190734863,3.6933659721398726e-05,1.0,9.999999747378752e-05
0.1397843211889267,0.9800000190734863,4.901174193946644e-05,1.0,9.999999747378752e-05
0.14053979516029358,0.9800000190734863,6.423504324629902e-05,1.0,9.999999747378752e-05
0.14188873767852783,0.9800000190734863,0.00015667940489947797,1.0,9.999999747378752e-05
0.14191150665283203,0.9800000190734863,3.9220923063112424e-05,1.0,9.999999747378752e-05
0.14186176657676697,0.9800000190734863,0.0001544824754819274,1.0,9.999999747378752e-05
0.14090242981910706,0.9800000190734863,4.399491881486028e-05,1.0,9.999999747378752e-05
0.13983391225337982,0.9800000190734863,3.6856075166724625e-05,1.0,9.999999747378752e-05
0.1386529505252838,0.9800000190734863,9.724028001073748e-05,1.0,9.999999747378752e-05
0.13839398324489594,0.9800000190734863,4.387329798191786e-05,1.0,9.999999747378752e-05
0.13821245729923248,0.9800000190734863,4.3307170853950085e-05,1.0,9.999999747378752e-05
0.13819608092308044,0.9800000190734863,4.255858599208295e-05,1.0,9.999999747378752e-05
0.13813108205795288,0.9800000190734863,3.4681909892242405e-05,1.0,9.999999747378752e-05
0.13788457214832306,0.9800000190734863,3.735181875526905e-05,1.0,9.999999747378752e-05
0.13801270723342896,0.9800000190734863,3.538393408234697e-05,1.0,9.999999747378752e-05
0.1383153796195984,0.9800000190734863,6.453507288824767e-05,1.0,9.999999747378752e-05
0.13788504898548126,0.9800000190734863,6.87014579307288e-05,1.0,9.999999747378752e-05
0.1381337195634842,0.9800000190734863,4.428927306435071e-05,1.0,9.999999747378752e-05
0.13808463513851166,0.9800000190734863,4.496894820476882e-05,1.0,9.999999747378752e-05
0.13827155530452728,0.9800000190734863,3.410256482311525e-05,1.0,9.999999747378752e-05
0.1384137123823166,0.9800000190734863,3.359240123245399e-05,1.0,9.999999747378752e-05
0.13811463117599487,0.9800000190734863,0.00010014505358412861,1.0,9.999999747378752e-05
0.13887719810009003,0.9800000190734863,4.128796732402406e-05,1.0,9.999999747378752e-05
0.1392911970615387,0.9800000190734863,3.23920464143157e-05,1.0,9.999999747378752e-05
0.13962845504283905,0.9800000190734863,4.464552766876295e-05,1.0,9.999999747378752e-05
0.1396154761314392,0.9800000190734863,5.820878897793591e-05,1.0,9.999999747378752e-05
0.13875065743923187,0.9800000190734863,4.407726009958424e-05,1.0,9.999999747378752e-05
0.1383461207151413,0.9800000190734863,3.424565904424526e-05,1.0,9.999999747378752e-05
0.1379113644361496,0.9800000190734863,3.378309280378744e-05,1.0,9.999999747378752e-05
0.13774621486663818,0.9800000190734863,3.337903530336916e-05,1.0,9.999999747378752e-05
0.1371951401233673,0.9800000190734863,8.622040448244661e-05,1.0,9.999999747378752e-05
0.1369730830192566,0.9800000190734863,5.89590601157397e-05,1.0,9.999999747378752e-05
0.1369916796684265,0.9800000190734863,3.21762946259696e-05,1.0,9.999999747378752e-05
0.13669243454933167,0.9800000190734863,4.5267946261446924e-05,1.0,9.999999747378752e-05
0.13708584010601044,0.9800000190734863,5.8997947489842774e-05,1.0,9.999999747378752e-05
0.13763079047203064,0.9800000190734863,9.016015799716115e-05,1.0,9.999999747378752e-05
0.1372373402118683,0.9800000190734863,6.187906314153224e-05,1.0,9.999999747378752e-05
0.13708162307739258,0.9800000190734863,3.739472755114548e-05,1.0,9.999999747378752e-05
0.13743579387664795,0.9800000190734863,4.144049758906476e-05,1.0,9.999999747378752e-05
0.13766777515411377,0.9800000190734863,3.301547621958889e-05,1.0,9.999999747378752e-05
0.13819526135921478,0.9800000190734863,5.774983554147184e-05,1.0,9.999999747378752e-05
0.1385556012392044,0.9800000190734863,3.341594638186507e-05,1.0,9.999999747378752e-05
0.13885106146335602,0.9800000190734863,3.170781332300976e-05,1.0,9.999999747378752e-05
0.13920816779136658,0.9800000190734863,6.462635821662843e-05,1.0,9.999999747378752e-05
0.13860489428043365,0.9800000190734863,5.9136171184945855e-05,1.0,9.999999747378752e-05
0.13885840773582458,0.9800000190734863,8.859604189638048e-05,1.0,9.999999747378752e-05
0.13858024775981903,0.9800000190734863,3.570928922272287e-05,1.0,9.999999747378752e-05
0.13805139064788818,0.9800000190734863,5.98311354406178e-05,1.0,9.999999747378752e-05
0.13743430376052856,0.9800000190734863,0.00010476791067048907,1.0,9.999999747378752e-05
0.1373002827167511,0.9800000190734863,3.1184519102680496e-05,1.0,9.999999747378752e-05
0.1373850405216217,0.9800000190734863,4.0241410461021586e-05,1.0,9.999999747378752e-05
0.13729622960090637,0.9800000190734863,3.093657724093646e-05,1.0,9.999999747378752e-05
0.13786908984184265,0.9800000190734863,8.702379185706378e-05,1.0,9.999999747378752e-05
0.1378163993358612,0.9800000190734863,9.382199554238469e-05,1.0,9.999999747378752e-05
0.13850823044776917,0.9800000190734863,3.14849078131374e-05,1.0,9.999999747378752e-05
0.1385154128074646,0.9800000190734863,5.568000953644514e-05,1.0,9.999999747378752e-05
0.13883380591869354,0.9800000190734863,3.2711508101783696e-05,1.0,9.999999747378752e-05
0.13866876065731049,0.9800000190734863,3.471647112746723e-05,1.0,9.999999747378752e-05
0.13844937086105347,0.9800000190734863,3.640065959189087e-05,1.0,9.999999747378752e-05
0.13799351453781128,0.9800000190734863,6.155654642498121e-05,1.0,9.999999747378752e-05
0.13781775534152985,0.9800000190734863,4.351912357378751e-05,1.0,9.999999747378752e-05
0.1377384215593338,0.9800000190734863,3.41680453857407e-05,1.0,9.999999747378752e-05
0.1376442313194275,0.9800000190734863,4.254072176991031e-05,1.0,9.999999747378752e-05
0.13817250728607178,0.9800000190734863,6.115189695265145e-05,1.0,9.999999747378752e-05
0.1383470892906189,0.9800000190734863,3.147533687297255e-05,1.0,9.999999747378752e-05
0.13866746425628662,0.9800000190734863,3.246115695219487e-05,1.0,9.999999747378752e-05
0.13865922391414642,0.9800000190734863,3.348508689668961e-05,1.0,9.999999747378752e-05
0.13877035677433014,0.9800000190734863,3.106531970843207e-05,1.0,9.999999747378752e-05
0.13869573175907135,0.9800000190734863,3.430272045079619e-05,1.0,9.999999747378752e-05
0.13888056576251984,0.9800000190734863,3.970849807956256e-05,1.0,9.999999747378752e-05
0.13830241560935974,0.9800000190734863,9.115034074056893e-05,1.0,9.999999747378752e-05
0.13805241882801056,0.9800000190734863,8.336531987879426e-05,1.0,9.999999747378752e-05
0.13848459720611572,0.9800000190734863,3.299519827123731e-05,1.0,9.999999747378752e-05
0.13881558179855347,0.9800000190734863,3.383436967851594e-05,1.0,9.999999747378752e-05
0.13926252722740173,0.9800000190734863,3.1742377614136786e-05,1.0,9.999999747378752e-05
0.1395384818315506,0.9800000190734863,3.300467753433622e-05,1.0,9.999999747378752e-05
0.13918453454971313,0.9800000190734863,5.832909257151187e-05,1.0,9.999999747378752e-05
0.13905595242977142,0.9800000190734863,3.005805177963339e-05,1.0,9.999999747378752e-05
0.13835254311561584,0.9800000190734863,5.933766165981069e-05,1.0,9.999999747378752e-05
0.13801687955856323,0.9800000190734863,3.0393002089112996e-05,1.0,9.999999747378752e-05
0.13750173151493073,0.9800000190734863,6.098554003983736e-05,1.0,9.999999747378752e-05
0.1374536007642746,0.9800000190734863,3.0719579808646816e-05,1.0,9.999999747378752e-05
0.13871118426322937,0.9800000190734863,0.0001610857038758695,1.0,9.999999747378752e-05
0.13965417444705963,0.9800000190734863,5.641995463520288e-05,1.0,9.999999747378752e-05
0.1407090127468109,0.9800000190734863,2.9735002026427538e-05,1.0,9.999999747378752e-05
0.14166641235351562,0.9800000190734863,3.1298926987801675e-05,1.0,9.999999747378752e-05
0.14220666885375977,0.9800000190734863,3.281043405877426e-05,1.0,9.999999747378752e-05
0.1427070051431656,0.9800000190734863,3.186751651810482e-05,1.0,9.999999747378752e-05
0.14311975240707397,0.9800000190734863,0.00013836161117069423,1.0,9.999999747378752e-05
0.14250992238521576,0.9800000190734863,4.1533404728397725e-05,1.0,9.999999747378752e-05
0.14247895777225494,0.9800000190734863,3.8763265911256896e-05,1.0,9.999999747378752e-05
0.14232423901557922,0.9800000190734863,3.1705352157587185e-05,1.0,9.999999747378752e-05
0.14222761988639832,0.9800000190734863,5.156983679626137e-05,1.0,9.999999747378752e-05
0.14168080687522888,0.9800000190734863,3.2501642417628316e-05,1.0,9.999999747378752e-05
0.14139367640018463,0.9800000190734863,4.1957659122999756e-05,1.0,9.999999747378752e-05
0.1409144550561905,0.9800000190734863,2.9461996746249497e-05,1.0,9.999999747378752e-05
0.14034824073314667,0.9800000190734863,2.9482265235856177e-05,1.0,9.999999747378752e-05
0.13980694115161896,0.9800000190734863,3.224059531930834e-05,1.0,9.999999747378752e-05
0.1394338756799698,0.9800000190734863,2.9504900958272628e-05,1.0,9.999999747378752e-05
0.13890475034713745,0.9800000190734863,3.326091275084764e-05,1.0,9.999999747378752e-05
0.13865415751934052,0.9800000190734863,3.8816747546661646e-05,1.0,9.999999747378752e-05
0.1388816386461258,0.9800000190734863,5.618465278530493e-05,1.0,9.999999747378752e-05
0.138824924826622,0.9800000190734863,5.893517402000725e-05,1.0,9.999999747378752e-05
0.13954466581344604,0.9800000190734863,5.3215897787595166e-05,1.0,9.999999747378752e-05
0.13950380682945251,0.9800000190734863,4.26954121212475e-05,1.0,9.999999747378752e-05
0.13948121666908264,0.9800000190734863,3.964056639233604e-05,1.0,9.999999747378752e-05
0.1393909603357315,0.9800000190734863,4.195747431367636e-05,1.0,9.999999747378752e-05
0.13943254947662354,0.9800000190734863,2.96193033864256e-05,1.0,9.999999747378752e-05
0.13937364518642426,0.9800000190734863,3.2541006075916814e-05,1.0,9.999999747378752e-05
0.13961806893348694,0.9800000190734863,3.754146382561885e-05,1.0,9.999999747378752e-05
0.13991287350654602,0.9800000190734863,3.727203293237835e-05,1.0,9.999999747378752e-05
0.14007696509361267,0.9800000190734863,2.9924480186309667e-05,1.0,9.999999747378752e-05
0.14025264978408813,0.9800000190734863,3.0593209521612154e-05,1.0,9.999999747378752e-05
0.1400943249464035,0.9800000190734863,3.9362840470857916e-05,1.0,9.999999747378752e-05
0.13988350331783295,0.9800000190734863,3.225365071557462e-05,1.0,9.999999747378752e-05
0.13975310325622559,0.9800000190734863,5.367313395254314e-05,1.0,9.999999747378752e-05
0.13856962323188782,0.9800000190734863,4.1748836520127955e-05,1.0,9.999999747378752e-05
0.1373448669910431,0.9800000190734863,5.6463721848558633e-05,1.0,9.999999747378752e-05
0.13647161424160004,0.9800000190734863,5.397575092501938e-05,1.0,9.999999747378752e-05
0.1348711997270584,0.9800000190734863,5.657224508468062e-05,1.0,9.999999747378752e-05
0.1336601972579956,0.9800000190734863,4.129492663196288e-05,1.0,9.999999747378752e-05
0.13307134807109833,0.9800000190734863,3.0541940141119994e-05,1.0,9.999999747378752e-05
0.13245649635791779,0.9800000190734863,2.8916047886013984e-05,1.0,9.999999747378752e-05
0.13212497532367706,0.9800000190734863,3.078630383242853e-05,1.0,9.999999747378752e-05
0.1316676139831543,0.9800000190734863,2.818055567331612e-05,1.0,9.999999747378752e-05
0.13113191723823547,0.9800000190734863,4.062373918714002e-05,1.0,9.999999747378752e-05
0.13117685914039612,0.9800000190734863,5.856177915120497e-05,1.0,9.999999747378752e-05
0.13097012042999268,0.9800000190734863,3.771305491682142e-05,1.0,9.999999747378752e-05
0.13096895813941956,0.9800000190734863,3.7127806863281875e-05,1.0,9.999999747378752e-05
0.13095925748348236,0.9800000190734863,2.8092356151319107e-05,1.0,9.999999747378752e-05
0.13054658472537994,0.9800000190734863,6.642141379415989e-05,1.0,9.999999747378752e-05
0.13158895075321198,0.9800000190734863,8.532669919077307e-05,1.0,9.999999747378752e-05
0.13247175514698029,0.9800000190734863,3.141809196677059e-05,1.0,9.999999747378752e-05
0.1337786167860031,0.9800000190734863,0.0001433010643813759,1.0,9.999999747378752e-05
0.13412214815616608,0.9800000190734863,3.903741104295477e-05,1.0,9.999999747378752e-05
0.1348859816789627,0.9800000190734863,3.550311957951635e-05,1.0,9.999999747378752e-05
0.1355666220188141,0.9800000190734863,5.524068488739431e-05,1.0,9.999999747378752e-05
0.13552185893058777,0.9800000190734863,5.535259260796011e-05,1.0,9.999999747378752e-05
0.1346306949853897,0.9800000190734863,4.033405595691875e-05,1.0,9.999999747378752e-05
0.13423216342926025,0.9800000190734863,3.712659963639453e-05,1.0,9.999999747378752e-05
0.1344257891178131,0.9800000190734863,8.06260752142407e-05,1.0,9.999999747378752e-05
0.13423827290534973,0.9800000190734863,5.440975626697764e-05,1.0,9.999999747378752e-05
0.13465316593647003,0.9800000190734863,3.8978840166237205e-05,1.0,9.999999747378752e-05
0.13460545241832733,0.9800000190734863,7.925505575258285e-05,1.0,9.999999747378752e-05
0.13437728583812714,0.9800000190734863,0.00013120851188432424,1.0,9.999999747378752e-05
0.1327999383211136,0.9800000190734863,3.678684530314058e-05,1.0,9.999999747378752e-05
0.1313411295413971,0.9800000190734863,2.9541828262154013e-05,1.0,9.999999747378752e-05
0.12969139218330383,0.9800000190734863,5.381657014368102e-05,1.0,9.999999747378752e-05
0.1287267655134201,0.9800000190734863,3.001267497893423e-05,1.0,9.999999747378752e-05
0.12798504531383514,0.9800000190734863,3.0236799648264424e-05,1.0,9.999999747378752e-05
0.12770533561706543,0.9800000190734863,2.979690703796223e-05,1.0,9.999999747378752e-05
0.1276852786540985,0.9800000190734863,2.9626467730849983e-05,1.0,9.999999747378752e-05
0.12801781296730042,0.9800000190734863,3.572955378331244e-05,1.0,9.999999747378752e-05
0.12848609685897827,0.9800000190734863,0.00012188615510240197,1.0,9.999999747378752e-05
0.12986764311790466,0.9800000190734863,2.960734360385686e-05,1.0,9.999999747378752e-05
0.13111743330955505,0.9800000190734863,2.7834814391098915e-05,1.0,9.999999747378752e-05
0.13239163160324097,0.9800000190734863,5.018933356041089e-05,1.0,9.999999747378752e-05
0.13264678418636322,0.9800000190734863,7.121883536456152e-05,1.0,9.999999747378752e-05
0.13290917873382568,0.9800000190734863,3.0261762294685468e-05,1.0,9.999999747378752e-05
0.13391785323619843,0.9800000190734863,6.900148960994556e-05,1.0,9.999999747378752e-05
0.13457657396793365,0.9800000190734863,2.7634597572614438e-05,1.0,9.999999747378752e-05
0.13516850769519806,0.9800000190734863,2.847616793587804e-05,1.0,9.999999747378752e-05
0.13547827303409576,0.9800000190734863,3.0078252602834255e-05,1.0,9.999999747378752e-05
0.13655835390090942,0.9800000190734863,0.00013952872599475084,1.0,9.999999747378752e-05
0.13741523027420044,0.9800000190734863,2.890529576689005e-05,1.0,9.999999747378752e-05
0.1377086639404297,0.9800000190734863,3.013666850165464e-05,1.0,9.999999747378752e-05
0.1378052532672882,0.9800000190734863,3.10055362933781e-05,1.0,9.999999747378752e-05
0.13754260540008545,0.9800000190734863,5.0175329961348324e-05,1.0,9.999999747378752e-05
0.13762933015823364,0.9800000190734863,3.505964734358713e-05,1.0,9.999999747378752e-05
0.1374344676733017,0.9800000190734863,2.8699048853013666e-05,1.0,9.999999747378752e-05
0.1371694803237915,0.9800000190734863,2.706477331230417e-05,1.0,9.999999747378752e-05
0.13653427362442017,0.9800000190734863,5.2363204886205495e-05,1.0,9.999999747378752e-05
0.13638617098331451,0.9800000190734863,2.667380336788483e-05,1.0,9.999999747378752e-05
0.13643012940883636,0.9800000190734863,2.8242498083272948e-05,1.0,9.999999747378752e-05
0.1362530142068863,0.9800000190734863,3.5569798201322554e-05,1.0,9.999999747378752e-05
0.136377215385437,0.9800000190734863,2.65116792434128e-05,1.0,9.999999747378752e-05
0.13646161556243896,0.9800000190734863,2.7986223503830843e-05,1.0,9.999999747378752e-05
0.13627034425735474,0.9800000190734863,4.107390821445733e-05,1.0,9.999999747378752e-05
0.13655485212802887,0.9800000190734863,2.7889646298717706e-05,1.0,9.999999747378752e-05
0.13671381771564484,0.9800000190734863,2.6398439949844032e-05,1.0,9.999999747378752e-05
0.1369003802537918,0.9800000190734863,3.545774598023854e-05,1.0,9.999999747378752e-05
0.13751612603664398,0.9800000190734863,8.445984800346195e-05,1.0,9.999999747378752e-05
0.1382683366537094,0.9800000190734863,3.432180863455869e-05,1.0,9.999999747378752e-05
0.13864393532276154,0.9800000190734863,2.703021469642408e-05,1.0,9.999999747378752e-05
0.13914822041988373,0.9800000190734863,2.874316938687116e-05,1.0,9.999999747378752e-05
0.13955505192279816,0.9800000190734863,2.6198166742688046e-05,1.0,9.999999747378752e-05
0.13983654975891113,0.9800000190734863,2.6292338443454355e-05,1.0,9.999999747378752e-05
0.139982208609581,0.9800000190734863,2.754390603513457e-05,1.0,9.999999747378752e-05
0.13947655260562897,0.9800000190734863,7.360795803833753e-05,1.0,9.999999747378752e-05
0.13912546634674072,0.9800000190734863,2.997449191752821e-05,1.0,9.999999747378752e-05
0.13913118839263916,0.9800000190734863,3.456853693933226e-05,1.0,9.999999747378752e-05
0.13904927670955658,0.9800000190734863,2.8980327260796913e-05,1.0,9.999999747378752e-05
0.1398056000471115,0.9800000190734863,8.357882674317807e-05,1.0,9.999999747378752e-05
0.1397172510623932,0.9800000190734863,0.00012558035610709339,1.0,9.999999747378752e-05
0.13818144798278809,0.9800000190734863,0.0001179130031960085,1.0,9.999999747378752e-05
0.13636721670627594,0.9800000190734863,3.531823283992708e-05,1.0,9.999999747378752e-05
0.13460096716880798,0.9800000190734863,2.8594185423571616e-05,1.0,9.999999747378752e-05
0.13340434432029724,0.9800000190734863,2.7647675087791866e-05,1.0,9.999999747378752e-05
0.1324499249458313,0.9800000190734863,2.7492696099216118e-05,1.0,9.999999747378752e-05
0.13178487122058868,0.9800000190734863,2.7269803103990854e-05,1.0,9.999999747378752e-05
0.13127805292606354,0.9800000190734863,3.648042868007906e-05,1.0,9.999999747378752e-05
0.13097435235977173,0.9800000190734863,3.889025363605469e-05,1.0,9.999999747378752e-05
0.13118816912174225,0.9800000190734863,2.7927759219892323e-05,1.0,9.999999747378752e-05
0.13109339773654938,0.9800000190734863,4.191867745248601e-05,1.0,9.999999747378752e-05
0.13137869536876678,0.9800000190734863,2.5780946161830796e-05,1.0,9.999999747378752e-05
0.13156187534332275,0.9800000190734863,2.8379578579915688e-05,1.0,9.999999747378752e-05
0.13162195682525635,0.9800000190734863,8.438293996732683e-05,1.0,9.999999747378752e-05
0.13244763016700745,0.9800000190734863,2.5760684002307245e-05,1.0,9.999999747378752e-05
0.13294783234596252,0.9800000190734863,3.719902888406068e-05,1.0,9.999999747378752e-05
0.13357025384902954,0.9800000190734863,2.6319726603105665e-05,1.0,9.999999747378752e-05
0.1338493973016739,0.9800000190734863,4.997347772587091e-05,1.0,9.999999747378752e-05
0.13430608808994293,0.9800000190734863,2.6790599949890748e-05,1.0,9.999999747378752e-05
0.13483268022537231,0.9800000190734863,3.3837789815152063e-05,1.0,9.999999747378752e-05
0.1351242959499359,0.9800000190734863,2.7232846478000283e-05,1.0,9.999999747378752e-05
0.1357336938381195,0.9800000190734863,7.10643592174165e-05,1.0,9.999999747378752e-05
0.13577865064144135,0.9800000190734863,3.2237849663943054e-05,1.0,9.999999747378752e-05
0.13609978556632996,0.9800000190734863,2.5392357929376886e-05,1.0,9.999999747378752e-05
0.13604414463043213,0.9800000190734863,4.9098851450253276e-05,1.0,9.999999747378752e-05
0.1360837072134018,0.9800000190734863,2.8316366224316882e-05,1.0,9.999999747378752e-05
0.13570529222488403,0.9800000190734863,5.4291356645990165e-05,1.0,9.999999747378752e-05
0.1366811990737915,0.9800000190734863,7.947308011353017e-05,1.0,9.999999747378752e-05
0.13750189542770386,0.9800000190734863,2.7875336236320436e-05,1.0,9.999999747378752e-05
0.1380530297756195,0.9800000190734863,3.6629598471336065e-05,1.0,9.999999747378752e-05
0.1385296881198883,0.9800000190734863,2.8054171853000298e-05,1.0,9.999999747378752e-05
0.1391979455947876,0.9800000190734863,3.320011834148317e-05,1.0,9.999999747378752e-05
0.13949541747570038,0.9800000190734863,2.6971778715960682e-05,1.0,9.999999747378752e-05
0.139692485332489,0.9800000190734863,2.7585693751461803e-05,1.0,9.999999747378752e-05
0.13994115591049194,0.9800000190734863,2.6478291474631987e-05,1.0,9.999999747378752e-05
0.13980205357074738,0.9800000190734863,3.567936655599624e-05,1.0,9.999999747378752e-05
0.13983793556690216,0.9800000190734863,2.45936747523956e-05,1.0,9.999999747378752e-05
0.14020860195159912,0.9800000190734863,4.902450396912172e-05,1.0,9.999999747378752e-05
0.14043527841567993,0.9800000190734863,2.6113511121366174e-05,1.0,9.999999747378752e-05
0.14040951430797577,0.9800000190734863,2.7784728590631858e-05,1.0,9.999999747378752e-05
0.1407284140586853,0.9800000190734863,3.2846044341567903e-05,1.0,9.999999747378752e-05
0.14027777314186096,0.9800000190734863,5.1124839810654524e-05,1.0,9.999999747378752e-05
0.140829399228096,0.9800000190734863,6.518045032862574e-05,1.0,9.999999747378752e-05
0.13977162539958954,0.9800000190734863,0.00030587728368118404,1.0,9.999999747378752e-05
0.1369560956954956,0.9800000190734863,4.498888592934236e-05,1.0,9.999999747378752e-05
0.13516516983509064,0.9800000190734863,5.4618041613139215e-05,1.0,9.999999747378752e-05
0.13374829292297363,0.9800000190734863,2.4936951595009303e-05,1.0,9.999999747378752e-05
0.13287927210330963,0.9800000190734863,2.7382942207623273e-05,1.0,9.999999747378752e-05
0.13230551779270172,0.9800000190734863,2.6602214347803965e-05,1.0,9.999999747378752e-05
0.13208959996700287,0.9800000190734863,7.525344350142404e-05,1.0,9.999999747378752e-05
0.1321391463279724,0.9800000190734863,3.16189817385748e-05,1.0,9.999999747378752e-05
0.13220418989658356,0.9800000190734863,3.0241129570640625e-05,1.0,9.999999747378752e-05
0.13338322937488556,0.9800000190734863,6.61405679420568e-05,1.0,9.999999747378752e-05
0.1350443959236145,0.9800000190734863,4.802517622010782e-05,1.0,9.999999747378752e-05
0.1369761824607849,0.9800000190734863,3.336324218253139e-05,1.0,9.999999747378752e-05
0.13858665525913239,0.9800000190734863,2.663317311089486e-05,1.0,9.999999747378752e-05
0.13955673575401306,0.9800000190734863,4.719607881270349e-05,1.0,9.999999747378752e-05
0.1407640427350998,0.9800000190734863,2.703373203985393e-05,1.0,9.999999747378752e-05
0.1417202353477478,0.9800000190734863,2.687516884179786e-05,1.0,9.999999747378752e-05
0.14162860810756683,0.9800000190734863,6.872696452774108e-05,1.0,9.999999747378752e-05
0.14184901118278503,0.9800000190734863,2.662838807736989e-05,1.0,9.999999747378752e-05
0.14181777834892273,0.9800000190734863,2.4852317073964515e-05,1.0,9.999999747378752e-05
0.14179940521717072,0.9800000190734863,2.6564047802821734e-05,1.0,9.999999747378752e-05
0.1416369378566742,0.9800000190734863,3.2654028764227405e-05,1.0,9.999999747378752e-05
0.1411929875612259,0.9800000190734863,2.608252594654914e-05,1.0,9.999999747378752e-05
0.14079801738262177,0.9800000190734863,2.5718935139593667e-05,1.0,9.999999747378752e-05
0.14055155217647552,0.9800000190734863,4.3733495112974195e-05,1.0,9.999999747378752e-05
0.13976779580116272,0.9800000190734863,3.6411029141163455e-05,1.0,9.999999747378752e-05
0.1388581097126007,0.9800000190734863,5.1197089487686756e-05,1.0,9.999999747378752e-05
0.13866208493709564,0.9800000190734863,2.659265483089257e-05,1.0,9.999999747378752e-05
0.13845513761043549,0.9800000190734863,3.161339875077829e-05,1.0,9.999999747378752e-05
0.13776136934757233,0.9800000190734863,3.4633856848813594e-05,1.0,9.999999747378752e-05
0.13736386597156525,0.9800000190734863,2.3793796717654914e-05,1.0,9.999999747378752e-05
0.13702431321144104,0.9800000190734863,3.320230956887826e-05,1.0,9.999999747378752e-05
0.13619348406791687,0.9800000190734863,2.419074531644583e-05,1.0,9.999999747378752e-05
0.13581009209156036,0.9800000190734863,3.156817918352317e-05,1.0,9.999999747378752e-05
0.1353129893541336,0.9800000190734863,2.3882011519162915e-05,1.0,9.999999747378752e-05
0.13500122725963593,0.9800000190734863,3.179343591909855e-05,1.0,9.999999747378752e-05
0.13441269099712372,0.9800000190734863,5.2710534073412416e-05,1.0,9.999999747378752e-05
0.13475605845451355,0.9800000190734863,2.550315715780016e-05,1.0,9.999999747378752e-05
0.13464277982711792,0.9800000190734863,3.376851745997556e-05,1.0,9.999999747378752e-05
0.13455286622047424,0.9800000190734863,2.598833423689939e-05,1.0,9.999999747378752e-05
0.13447768986225128,0.9800000190734863,2.6210035430267452e-05,1.0,9.999999747378752e-05
0.1343713253736496,0.9800000190734863,3.226310043828562e-05,1.0,9.999999747378752e-05
0.13454684615135193,0.9800000190734863,2.5047836024896243e-05,1.0,9.999999747378752e-05
0.13450869917869568,0.9800000190734863,2.6173090300289915e-05,1.0,9.999999747378752e-05
0.13464489579200745,0.9800000190734863,2.5293394501204602e-05,1.0,9.999999747378752e-05
0.13439711928367615,0.9800000190734863,2.688594482606277e-05,1.0,9.999999747378752e-05
0.13454991579055786,0.9800000190734863,2.569863339886069e-05,1.0,9.999999747378752e-05
0.13469666242599487,0.9800000190734863,4.249286910635419e-05,1.0,9.999999747378752e-05
0.1339559406042099,0.9800000190734863,4.909469891572371e-05,1.0,9.999999747378752e-05
0.13372735679149628,0.9800000190734863,2.6832287840079517e-05,1.0,9.999999747378752e-05
0.13451765477657318,0.9800000190734863,0.00011667941289488226,1.0,9.999999747378752e-05
0.13535767793655396,0.9800000190734863,4.197551490506157e-05,1.0,9.999999747378752e-05
0.13576382398605347,0.9800000190734863,2.3712725451332516e-05,1.0,9.999999747378752e-05
0.13610520958900452,0.9800000190734863,2.3172742294264027e-05,1.0,9.999999747378752e-05
0.13646160066127777,0.9800000190734863,2.4784357447060756e-05,1.0,9.999999747378752e-05
0.13648442924022675,0.9800000190734863,2.6016906194854527e-05,1.0,9.999999747378752e-05
0.13675957918167114,0.9800000190734863,2.455669738992583e-05,1.0,9.999999747378752e-05
0.13697224855422974,0.9800000190734863,2.437789487885311e-05,1.0,9.999999747378752e-05
0.13692733645439148,0.9800000190734863,3.415701023186557e-05,1.0,9.999999747378752e-05
0.13726940751075745,0.9800000190734863,2.4566233551013285e-05,1.0,9.999999747378752e-05
0.13763317465782166,0.9800000190734863,2.9600141933769917e-05,1.0,9.999999747378752e-05
0.1376325637102127,0.9800000190734863,2.2949833364691586e-05,1.0,9.999999747378752e-05
0.1377081573009491,0.9800000190734863,2.3957084922585638e-05,1.0,9.999999747378752e-05
0.1375892460346222,0.9800000190734863,2.2693532446282916e-05,1.0,9.999999747378752e-05
0.13725629448890686,0.9800000190734863,3.761945554288104e-05,1.0,9.999999747378752e-05
0.13750232756137848,0.9800000190734863,2.4922605298343115e-05,1.0,9.999999747378752e-05
0.13760995864868164,0.9800000190734863,2.2989160861470736e-05,1.0,9.999999747378752e-05
0.1375681459903717,0.9800000190734863,2.2854462513350883e-05,1.0,9.999999747378752e-05
0.13765016198158264,0.9800000190734863,2.9254471155581995e-05,1.0,9.999999747378752e-05
0.13752155005931854,0.9800000190734863,2.4069150967989116e-05,1.0,9.999999747378752e-05
0.13703109323978424,0.9800000190734863,3.264456172473729e-05,1.0,9.999999747378752e-05
0.13698463141918182,0.9800000190734863,2.9505966522265227e-05,1.0,9.999999747378752e-05
0.13843174278736115,0.9800000190734863,9.87484073266387e-05,1.0,9.999999747378752e-05
0.14040471613407135,0.9800000190734863,2.4972694445750678e-05,1.0,9.999999747378752e-05
0.14159168303012848,0.9800000190734863,3.3228449028683825e-05,1.0,9.999999747378752e-05
0.1430164873600006,0.9800000190734863,2.9936294376966545e-05,1.0,9.999999747378752e-05
0.14383073151111603,0.9800000190734863,2.268756892590318e-05,1.0,9.999999747378752e-05
0.14449526369571686,0.9800000190734863,2.3249016085173934e-05,1.0,9.999999747378752e-05
0.1446881890296936,0.9800000190734863,2.4400545516982674e-05,1.0,9.999999747378752e-05
0.14477935433387756,0.9800000190734863,2.252902908367105e-05,1.0,9.999999747378752e-05
0.14495112001895905,0.9800000190734863,4.0083741332637146e-05,1.0,9.999999747378752e-05
0.14450474083423615,0.9800000190734863,4.221963637974113e-05,1.0,9.999999747378752e-05
0.14238668978214264,0.9800000190734863,9.637139621190727e-05,1.0,9.999999747378752e-05
0.1409856379032135,0.9800000190734863,2.2656569562968798e-05,1.0,9.999999747378752e-05
0.1397680789232254,0.9800000190734863,2.2174990590428934e-05,1.0,9.999999747378752e-05
0.13901253044605255,0.9800000190734863,2.92627760063624e-05,1.0,9.999999747378752e-05
0.13826249539852142,0.9800000190734863,2.9571507911896334e-05,1.0,9.999999747378752e-05
0.1375613808631897,0.9800000190734863,2.3870085351518354e-05,1.0,9.999999747378752e-05
0.13709710538387299,0.9800000190734863,2.3680519589106553e-05,1.0,9.999999747378752e-05
0.13660287857055664,0.9800000190734863,2.2144000031403265e-05,1.0,9.999999747378752e-05
0.13609108328819275,0.9800000190734863,3.071106490097009e-05,1.0,9.999999747378752e-05
0.1366584450006485,0.9800000190734863,5.9990310692228374e-05,1.0,9.999999747378752e-05
0.1366857886314392,0.9800000190734863,4.295643186196685e-05,1.0,9.999999747378752e-05
0.13696548342704773,0.9800000190734863,2.2138039203127846e-05,1.0,9.999999747378752e-05
0.13697659969329834,0.9800000190734863,4.076098790392279e-05,1.0,9.999999747378752e-05
0.13691508769989014,0.9800000190734863,3.169450079440139e-05,1.0,9.999999747378752e-05
0.137146458029747,0.9800000190734863,4.1008631378645077e-05,1.0,9.999999747378752e-05
0.1372537463903427,0.9800000190734863,4.718961950857192e-05,1.0,9.999999747378752e-05
0.13743558526039124,0.9800000190734863,2.980035998916719e-05,1.0,9.999999747378752e-05
0.13729877769947052,0.9800000190734863,2.3054691118886695e-05,1.0,9.999999747378752e-05
0.1373787820339203,0.9800000190734863,4.303245616029017e-05,1.0,9.999999747378752e-05
0.13731180131435394,0.9800000190734863,2.8990952123422176e-05,1.0,9.999999747378752e-05
0.13666458427906036,0.9800000190734863,3.3093756210291756e-05,1.0,9.999999747378752e-05
0.13648498058319092,0.9800000190734863,2.3525562210124917e-05,1.0,9.999999747378752e-05
0.13634823262691498,0.9800000190734863,2.3102377890609206e-05,1.0,9.999999747378752e-05
0.13614393770694733,0.9800000190734863,2.1788764497614467e-05,1.0,9.999999747378752e-05
0.13610336184501648,0.9800000190734863,2.2751936994609424e-05,1.0,9.999999747378752e-05
0.13594485819339752,0.9800000190734863,2.44148319325177e-05,1.0,9.999999747378752e-05
0.13569878041744232,0.9800000190734863,3.209719958249479e-05,1.0,9.999999747378752e-05
0.1354212760925293,0.9800000190734863,4.4037358020432296e-05,1.0,9.999999747378752e-05
0.13584689795970917,0.9800000190734863,2.3409910791087897e-05,1.0,9.999999747378752e-05
0.13579624891281128,0.9800000190734863,3.1021036120364444e-05,1.0,9.999999747378752e-05
0.13605324923992157,0.9800000190734863,2.3102390332496726e-05,1.0,9.999999747378752e-05
0.1361103653907776,0.9800000190734863,2.375919371843338e-05,1.0,9.999999747378752e-05
0.13643759489059448,0.9800000190734863,2.9157882672734558e-05,1.0,9.999999747378752e-05
0.13645555078983307,0.9800000190734863,2.1859067492187022e-05,1.0,9.999999747378752e-05
0.13660812377929688,0.9800000190734863,2.254571321827825e-05,1.0,9.999999747378752e-05
0.13645324110984802,0.9800000190734863,3.1851732201175766e-05,1.0,9.999999747378752e-05
0.13659748435020447,0.9800000190734863,2.1311939490260557e-05,1.0,9.999999747378752e-05
0.13666382431983948,0.9800000190734863,2.5245553406421095e-05,1.0,9.999999747378752e-05
0.13660772144794464,0.9800000190734863,3.120691442745738e-05,1.0,9.999999747378752e-05
0.13753443956375122,0.9800000190734863,0.00014157167519442736,1.0,9.999999747378752e-05
0.13842856884002686,0.9800000190734863,3.010071799508296e-05,1.0,9.999999747378752e-05
0.13885526359081268,0.9800000190734863,3.0228262694436126e-05,1.0,9.999999747378752e-05
0.13908524811267853,0.9800000190734863,2.6863252569455652e-05,1.0,9.999999747378752e-05
0.1385335773229599,0.9800000190734863,6.432643975131214e-05,1.0,9.999999747378752e-05
0.13826139271259308,0.9800000190734863,2.3990461049834265e-05,1.0,9.999999747378752e-05
0.13816958665847778,0.9800000190734863,2.134650778316427e-05,1.0,9.999999747378752e-05
0.1380484700202942,0.9800000190734863,2.1409684777609072e-05,1.0,9.999999747378752e-05
0.1380775421857834,0.9800000190734863,2.2848495063954033e-05,1.0,9.999999747378752e-05
0.137770876288414,0.9800000190734863,2.466627163812518e-05,1.0,9.999999747378752e-05
0.13779324293136597,0.9800000190734863,3.923496435163543e-05,1.0,9.999999747378752e-05
0.13743522763252258,0.9800000190734863,2.1265446848701684e-05,1.0,9.999999747378752e-05
0.13763204216957092,0.9800000190734863,4.0896592981880534e-05,1.0,9.999999747378752e-05
0.1373608112335205,0.9800000190734863,4.116243391763419e-05,1.0,9.999999747378752e-05
0.1369616538286209,0.9800000190734863,2.960605124826543e-05,1.0,9.999999747378752e-05
0.13654673099517822,0.9800000190734863,3.0559664592146876e-05,1.0,9.999999747378752e-05
0.13644619286060333,0.9800000190734863,2.3442102246917784e-05,1.0,9.999999747378752e-05
0.1385071873664856,0.9800000190734863,0.00011378982802852989,1.0,9.999999747378752e-05
0.1413443237543106,0.9800000190734863,2.2074829030316322e-05,1.0,9.999999747378752e-05
0.14331774413585663,0.9800000190734863,2.3510059181717226e-05,1.0,9.999999747378752e-05
0.14489638805389404,0.9800000190734863,2.097577911627013e-05,1.0,9.999999747378752e-05
0.14612609148025513,0.9800000190734863,2.2327552069327795e-05,1.0,9.999999747378752e-05
0.14595288038253784,0.9800000190734863,9.92527138441801e-05,1.0,9.999999747378752e-05
0.1440361887216568,0.9800000190734863,3.8588970201089976e-05,1.0,9.999999747378752e-05
0.14204582571983337,0.9800000190734863,2.3214410903165116e-05,1.0,9.999999747378752e-05
0.14020833373069763,0.9800000190734863,2.2972420701989904e-05,1.0,9.999999747378752e-05
0.13901802897453308,0.9800000190734863,2.195087232394144e-05,1.0,9.999999747378752e-05
0.1383749544620514,0.9800000190734863,4.024693989777006e-05,1.0,9.999999747378752e-05
0.13769857585430145,0.9800000190734863,2.058358739304822e-05,1.0,9.999999747378752e-05
0.13803404569625854,0.9800000190734863,8.757276576943695e-05,1.0,9.999999747378752e-05
0.1383078545331955,0.9800000190734863,2.1744629921158777e-05,1.0,9.999999747378752e-05
0.13847731053829193,0.9800000190734863,2.1482385709532536e-05,1.0,9.999999747378752e-05
0.13836173713207245,0.9800000190734863,2.9151793278288096e-05,1.0,9.999999747378752e-05
0.1387028992176056,0.9800000190734863,3.1525033409707246e-05,1.0,9.999999747378752e-05
0.1390155553817749,0.9800000190734863,2.1377492957981302e-05,1.0,9.999999747378752e-05
0.13895095884799957,0.9800000190734863,3.320535935927182e-05,1.0,9.999999747378752e-05
0.13953223824501038,0.9800000190734863,3.8984718557912856e-05,1.0,9.999999747378752e-05
0.13981375098228455,0.9800000190734863,2.048702008323744e-05,1.0,9.999999747378752e-05
0.13981132209300995,0.9800000190734863,2.9803750803694128e-05,1.0,9.999999747378752e-05
0.1395319104194641,0.9800000190734863,4.342325060861185e-05,1.0,9.999999747378752e-05
0.13938330113887787,0.9800000190734863,2.1071115334052593e-05,1.0,9.999999747378752e-05
0.13924869894981384,0.9800000190734863,2.061218830931466e-05,1.0,9.999999747378752e-05
0.1392228901386261,0.9800000190734863,2.165642712498084e-05,1.0,9.999999747378752e-05
0.1392616182565689,0.9800000190734863,2.1797065892315003e-05,1.0,9.999999747378752e-05
0.13889621198177338,0.9800000190734863,2.8816950944019482e-05,1.0,9.999999747378752e-05
0.13908584415912628,0.9800000190734863,4.066643363330513e-05,1.0,9.999999747378752e-05
0.13919444382190704,0.9800000190734863,2.708729967707768e-05,1.0,9.999999747378752e-05
0.13818921148777008,0.9800000190734863,6.609200325328857e-05,1.0,9.999999747378752e-05
0.137562558054924,0.9800000190734863,2.0165176101727413e-05,1.0,9.999999747378752e-05
0.13703985512256622,0.9800000190734863,0.0001024740730645135,1.0,9.999999747378752e-05
0.1354944407939911,0.9800000190734863,3.116380452411249e-05,1.0,9.999999747378752e-05
0.13446921110153198,0.9800000190734863,2.7514099929248915e-05,1.0,9.999999747378752e-05
0.13387788832187653,0.9800000190734863,2.1265428731567226e-05,1.0,9.999999747378752e-05
0.13333679735660553,0.9800000190734863,2.0142516950727442e-05,1.0,9.999999747378752e-05
0.1331452578306198,0.9800000190734863,2.656998723978177e-05,1.0,9.999999747378752e-05
0.13309405744075775,0.9800000190734863,2.7561712922761217e-05,1.0,9.999999747378752e-05
0.13285358250141144,0.9800000190734863,2.7015770319849254e-05,1.0,9.999999747378752e-05
0.1325896978378296,0.9800000190734863,2.1034167220932433e-05,1.0,9.999999747378752e-05
0.13202103972434998,0.9800000190734863,3.0279306520242245e-05,1.0,9.999999747378752e-05
0.13220234215259552,0.9800000190734863,3.66020061483141e-05,1.0,9.999999747378752e-05
0.1323624849319458,0.9800000190734863,2.5952518044505268e-05,1.0,9.999999747378752e-05
0.13241496682167053,0.9800000190734863,1.9713381843757814e-05,1.0,9.999999747378752e-05
0.13233737647533417,0.9800000190734863,2.7620194159680978e-05,1.0,9.999999747378752e-05
0.1325167566537857,0.9800000190734863,2.1066358895041047e-05,1.0,9.999999747378752e-05
0.13262131810188293,0.9800000190734863,1.9789671496255325e-05,1.0,9.999999747378752e-05
0.13264687359333038,0.9800000190734863,2.101504614984151e-05,1.0,9.999999747378752e-05
0.13267028331756592,0.9800000190734863,1.977536390768364e-05,1.0,9.999999747378752e-05
0.13304315507411957,0.9800000190734863,5.62808898393996e-05,1.0,9.999999747378752e-05
0.13291433453559875,0.9800000190734863,1.9714574300451204e-05,1.0,9.999999747378752e-05
0.1325964778661728,0.9800000190734863,2.8437859873520212e-05,1.0,9.999999747378752e-05
0.13250580430030823,0.9800000190734863,1.9715764501597733e-05,1.0,9.999999747378752e-05
0.1328798085451126,0.9800000190734863,3.839217737549916e-05,1.0,9.999999747378752e-05
0.13329695165157318,0.9800000190734863,2.526709547964856e-05,1.0,9.999999747378752e-05
0.13315950334072113,0.9800000190734863,3.915152337867767e-05,1.0,9.999999747378752e-05
0.13319456577301025,0.9800000190734863,2.2261932026594878e-05,1.0,9.999999747378752e-05
0.13342943787574768,0.9800000190734863,2.0550194749375804e-05,1.0,9.999999747378752e-05
0.13359524309635162,0.9800000190734863,2.042263869952876e-05,1.0,9.999999747378752e-05
0.13369351625442505,0.9800000190734863,2.0466725254664196e-05,1.0,9.999999747378752e-05
0.133658766746521,0.9800000190734863,5.54507493507117e-05,1.0,9.999999747378752e-05
0.13395246863365173,0.9800000190734863,2.196751069277525e-05,1.0,9.999999747378752e-05
0.13432039320468903,0.9800000190734863,1.933549501700327e-05,1.0,9.999999747378752e-05
0.1350596696138382,0.9800000190734863,3.6804479459533465e-05,1.0,9.999999747378752e-05
0.13579581677913666,0.9800000190734863,2.569501732068602e-05,1.0,9.999999747378752e-05
0.13650447130203247,0.9800000190734863,2.5556733744451778e-05,1.0,9.999999747378752e-05
0.13675138354301453,0.9800000190734863,2.898962760809809e-05,1.0,9.999999747378752e-05
0.13695183396339417,0.9800000190734863,2.873573510441929e-05,1.0,9.999999747378752e-05
0.13712869584560394,0.9800000190734863,2.179587376303971e-05,1.0,9.999999747378752e-05
0.13704107701778412,0.9800000190734863,4.0924912027549e-05,1.0,9.999999747378752e-05
0.13731171190738678,0.9800000190734863,2.11831718479516e-05,1.0,9.999999747378752e-05
0.13743485510349274,0.9800000190734863,2.6553283823886887e-05,1.0,9.999999747378752e-05
0.13763119280338287,0.9800000190734863,2.047505600785371e-05,1.0,9.999999747378752e-05
0.13786548376083374,0.9800000190734863,1.9039872058783657e-05,1.0,9.999999747378752e-05
0.1381651759147644,0.9800000190734863,2.0391645666677504e-05,1.0,9.999999747378752e-05
0.13823719322681427,0.9800000190734863,1.9255627048551105e-05,1.0,9.999999747378752e-05
0.13821424543857574,0.9800000190734863,1.9103050290141256e-05,1.0,9.999999747378752e-05
0.13838738203048706,0.9800000190734863,2.386407184530981e-05,1.0,9.999999747378752e-05
0.1386323720216751,0.9800000190734863,2.569145020970609e-05,1.0,9.999999747378752e-05
0.13859832286834717,0.9800000190734863,1.879192474007141e-05,1.0,9.999999747378752e-05
0.13822506368160248,0.9800000190734863,2.9071869212202726e-05,1.0,9.999999747378752e-05
0.13770076632499695,0.9800000190734863,2.7879893459612503e-05,1.0,9.999999747378752e-05
0.13713394105434418,0.9800000190734863,3.658409303170629e-05,1.0,9.999999747378752e-05
0.13647305965423584,0.9800000190734863,4.518572532106191e-05,1.0,9.999999747378752e-05
0.13614404201507568,0.9800000190734863,0.000101160240592435,1.0,9.999999747378752e-05
0.1361839771270752,0.9800000190734863,0.00013585339183919132,1.0,9.999999747378752e-05
0.13712210953235626,0.9800000190734863,2.678326825844124e-05,1.0,9.999999747378752e-05
0.13782767951488495,0.9800000190734863,2.574628495494835e-05,1.0,9.999999747378752e-05
0.13823777437210083,0.9800000190734863,1.9163853939971885e-05,1.0,9.999999747378752e-05
0.13836996257305145,0.9800000190734863,5.939327587839216e-05,1.0,9.999999747378752e-05
0.13742437958717346,0.9800000190734863,2.0527559172478504e-05,1.0,9.999999747378752e-05
0.1361081451177597,0.9800000190734863,4.14555351017043e-05,1.0,9.999999747378752e-05
0.1355997622013092,0.9800000190734863,2.5523369113216178e-05,1.0,9.999999747378752e-05
0.13483379781246185,0.9800000190734863,5.410144600318745e-05,1.0,9.999999747378752e-05
0.13458691537380219,0.9800000190734863,1.895047229481861e-05,1.0,9.999999747378752e-05
0.1345071941614151,0.9800000190734863,2.04631824453827e-05,1.0,9.999999747378752e-05
0.13489079475402832,0.9800000190734863,2.4072689848253502e-05,1.0,9.999999747378752e-05
0.1352459043264389,0.9800000190734863,2.0038804796058684e-05,1.0,9.999999747378752e-05
0.13532906770706177,0.9800000190734863,3.637902773334645e-05,1.0,9.999999747378752e-05
0.13582301139831543,0.9800000190734863,2.2098627377999948e-05,1.0,9.999999747378752e-05
0.1363704353570938,0.9800000190734863,1.9005294379894622e-05,1.0,9.999999747378752e-05
0.1369568258523941,0.9800000190734863,1.83949715574272e-05,1.0,9.999999747378752e-05
0.13745075464248657,0.9800000190734863,2.0273647023714148e-05,1.0,9.999999747378752e-05
0.13772356510162354,0.9800000190734863,2.6043085963465273e-05,1.0,9.999999747378752e-05
0.13811923563480377,0.9800000190734863,2.139170639566146e-05,1.0,9.999999747378752e-05
0.13906899094581604,0.9800000190734863,3.3198791497852654e-05,1.0,9.999999747378752e-05
0.13953623175621033,0.9800000190734863,5.788029608083889e-05,1.0,9.999999747378752e-05
0.14023680984973907,0.9800000190734863,2.6717723376350477e-05,1.0,9.999999747378752e-05
0.14105504751205444,0.9800000190734863,1.810768138966523e-05,1.0,9.999999747378752e-05
0.1415301263332367,0.9800000190734863,2.577847335487604e-05,1.0,9.999999747378752e-05
0.14188706874847412,0.9800000190734863,2.0283177436795087e-05,1.0,9.999999747378752e-05
0.14272981882095337,0.9800000190734863,3.4688769228523595e-05,1.0,9.999999747378752e-05
0.14291197061538696,0.9800000190734863,2.073020594252739e-05,1.0,9.999999747378752e-05
0.1429118812084198,0.9800000190734863,2.0404740716912783e-05,1.0,9.999999747378752e-05
0.14328069984912872,0.9800000190734863,3.3508699561934915e-05,1.0,9.999999747378752e-05
0.14279036223888397,0.9800000190734863,9.02949646115303e-05,1.0,9.999999747378752e-05
0.14345507323741913,0.9800000190734863,1.9454687608231323e-05,1.0,9.999999747378752e-05
0.14349551498889923,0.9800000190734863,2.5130023277597503e-05,1.0,9.999999747378752e-05
0.14373105764389038,0.9800000190734863,1.9515493258950302e-05,1.0,9.999999747378752e-05
0.14391322433948517,0.9800000190734863,1.796821212337818e-05,1.0,9.999999747378752e-05
0.14383727312088013,0.9800000190734863,2.5158596836263315e-05,1.0,9.999999747378752e-05
0.1458907276391983,0.9800000190734863,0.0001967247761785984,1.0,9.999999747378752e-05
0.14744876325130463,0.9800000190734863,8.258870046120137e-05,1.0,9.999999747378752e-05
0.14929144084453583,0.9800000190734863,5.292788671795279e-05,1.0,9.999999747378752e-05
0.14968423545360565,0.9800000190734863,3.6212115228408946e-05,1.0,9.999999747378752e-05
0.14912529289722443,0.9800000190734863,8.483738696668297e-05,1.0,9.999999747378752e-05
0.14699524641036987,0.9800000190734863,2.3303788329940288e-05,1.0,9.999999747378752e-05
0.14502505958080292,0.9800000190734863,2.4747340648900718e-05,1.0,9.999999747378752e-05
0.14284904301166534,0.9800000190734863,2.1072245363029652e-05,1.0,9.999999747378752e-05
0.14127545058727264,0.9800000190734863,1.881454954855144e-05,1.0,9.999999747378752e-05
0.13993550837039948,0.9800000190734863,1.891110558062792e-05,1.0,9.999999747378752e-05
0.1396464854478836,0.9800000190734863,8.490407839417457e-05,1.0,9.999999747378752e-05
0.1391138881444931,0.9800000190734863,3.300330427009612e-05,1.0,9.999999747378752e-05
0.1390918344259262,0.9800000190734863,2.3391962386085652e-05,1.0,9.999999747378752e-05
0.1387893408536911,0.9800000190734863,2.7562692703213544e-05,1.0,9.999999747378752e-05
0.13885027170181274,0.9800000190734863,1.8958783984999174e-05,1.0,9.999999747378752e-05
0.13859067857265472,0.9800000190734863,3.901388350641355e-05,1.0,9.999999747378752e-05
0.14060699939727783,0.9800000190734863,0.00012852016661781817,1.0,9.999999747378752e-05
0.14255712926387787,0.9800000190734863,2.2040054172975942e-05,1.0,9.999999747378752e-05
0.14447005093097687,0.9800000190734863,1.9521412323229015e-05,1.0,9.999999747378752e-05
0.1455947309732437,0.9800000190734863,2.7524432516656817e-05,1.0,9.999999747378752e-05
0.14679162204265594,0.9800000190734863,1.8402097157377285e-05,1.0,9.999999747378752e-05
0.1469355821609497,0.9800000190734863,3.584596386644989e-05,1.0,9.999999747378752e-05
0.146689772605896,0.9800000190734863,2.643036365043372e-05,1.0,9.999999747378752e-05
0.1467469334602356,0.9800000190734863,1.9472539279377087e-05,1.0,9.999999747378752e-05
0.14637988805770874,0.9800000190734863,1.958222193934489e-05,1.0,9.999999747378752e-05
0.1459398865699768,0.9800000190734863,1.7552171266288495e-05,1.0,9.999999747378752e-05
0.14522680640220642,0.9800000190734863,1.912925799842924e-05,1.0,9.999999747378752e-05
0.14459463953971863,0.9800000190734863,1.7684486520010977e-05,1.0,9.999999747378752e-05
0.14401020109653473,0.9800000190734863,1.90338625543518e-05,1.0,9.999999747378752e-05
0.14325767755508423,0.9800000190734863,1.8629762780619786e-05,1.0,9.999999747378752e-05
0.1425146609544754,0.9800000190734863,1.8641693895915522e-05,1.0,9.999999747378752e-05
0.14146952331066132,0.9800000190734863,2.3848564524087124e-05,1.0,9.999999747378752e-05
