val_loss,val_accuracy,loss,accuracy,lr
0.7792734449704488,0.7639999985694885,0.4589654557704926,0.8799999952316284,0.0010000000474974513
0.5397013787163628,0.9315555691719055,0.21948420357704163,0.9380000233650208,0.0010000000474974513
0.37197756282488503,0.9319999814033508,0.17242136919498444,0.9440000057220459,0.0010000000474974513
0.43899562605222064,0.9306666851043701,0.15026762735843657,0.9539999961853027,0.0010000000474974513
0.444265792131424,0.9346666932106018,0.12568687218427657,0.9599999785423279,0.0010000000474974513
0.4734054277737935,0.9337777495384216,0.12888882505893706,0.9580000042915344,0.0010000000474974513
0.67157616964976,0.9097777605056763,0.10293661880493164,0.9700000286102295,0.0010000000474974513
0.7272456126742893,0.9208889007568359,0.09792849755287171,0.9700000286102295,0.0010000000474974513
0.9988574019538031,0.7195555567741394,0.09284922409057617,0.972000002861023,0.0010000000474974513
0.6722731572786967,0.8622221946716309,0.08166668784618378,0.9779999852180481,0.0010000000474974513
0.5357367549472385,0.9359999895095825,0.07893809980154037,0.9760000109672546,0.0010000000474974513
0.4548107385105557,0.9324444532394409,0.06906474629044533,0.9800000190734863,0.0010000000474974513
0.5660155157513088,0.93022221326828,0.0713871488571167,0.9779999852180481,0.0010000000474974513
0.6501306904686822,0.9017778038978577,0.06123407882452011,0.9819999933242798,0.0010000000474974513
0.7479621828926935,0.8479999899864197,0.05793617756664753,0.9819999933242798,0.0010000000474974513
0.615570594045851,0.9053333401679993,0.060770548582077026,0.9819999933242798,0.0010000000474974513
0.7594183226691352,0.8195555806159973,0.051003215610980986,0.9860000014305115,0.0010000000474974513
0.7673806960847642,0.7795555591583252,0.06349011645466089,0.9760000109672546,0.0010000000474974513
0.6768176465034484,0.8199999928474426,0.0570141299366951,0.984000027179718,0.0010000000474974513
0.5843594012790256,0.8866666555404663,0.05849544274806976,0.9860000014305115,0.0010000000474974513
0.8708074013921949,0.6359999775886536,0.06541252303123474,0.9800000190734863,0.0010000000474974513
0.6628254401948717,0.776888906955719,0.06110580497980118,0.9779999852180481,0.0010000000474974513
0.588494699160258,0.8177777528762817,0.04412458756566048,0.9860000014305115,0.0010000000474974513
0.5431881444189284,0.9155555367469788,0.045000331461429594,0.9879999756813049,0.0010000000474974513
0.5759237959649828,0.8995555639266968,0.033200914107263085,0.9919999837875366,0.0010000000474974513
0.5143780518637763,0.9044444561004639,0.036779245719313625,0.9919999837875366,0.0010000000474974513
0.6875892057418823,0.8373333215713501,0.029028369590640066,0.9940000176429749,0.0010000000474974513
0.7463299526638455,0.7662222385406494,0.02463963532447815,0.9959999918937683,0.0010000000474974513
0.326690376996994,0.9288889169692993,0.032861493974924084,0.9900000095367432,0.0010000000474974513
0.9222870767381456,0.5826666951179504,0.10587724286317825,0.972000002861023,0.0010000000474974513
1.522923806084527,0.3808888792991638,0.05470768666267395,0.9879999756813049,0.0010000000474974513
1.539799711757236,0.23066666722297668,0.03416869320347905,0.9900000095367432,0.0010000000474974513
0.3825852205223507,0.914222240447998,0.0399250151515007,0.9900000095367432,0.0010000000474974513
0.3405794932179981,0.9213333129882812,0.04383764970302582,0.9900000095367432,0.0010000000474974513
0.9563723653687372,0.6288889050483704,0.07450847560167313,0.9779999852180481,0.0010000000474974513
0.9986085652245416,0.6448888778686523,0.0444059996008873,0.9900000095367432,0.0010000000474974513
1.0546899887720744,0.6475555300712585,0.042323426127433776,0.9900000095367432,0.0010000000474974513
0.6397460347811381,0.7253333330154419,0.03375472944974899,0.9879999756813049,0.0010000000474974513
0.4715239937172996,0.800000011920929,0.027190353833138944,0.9959999918937683,0.0010000000474974513
0.36901926910877225,0.9053333401679993,0.017597781404852866,0.9980000257492065,0.0010000000474974513
0.4344556254810757,0.8457777500152588,0.01914033116400242,0.9919999837875366,0.0010000000474974513
0.27591373554203247,0.9413333535194397,0.02161037665605545,0.9940000176429749,0.0010000000474974513
0.39298515206575396,0.8382222056388855,0.024564341247081758,0.9959999918937683,0.0010000000474974513
0.6940562671555414,0.7084444165229797,0.01833883745968342,0.9940000176429749,0.0010000000474974513
0.5998691810369492,0.7675555348396301,0.013773595564067364,0.9980000257492065,0.0010000000474974513
0.683471019797855,0.7284444570541382,0.015177204370498657,0.9940000176429749,0.0010000000474974513
0.28300595217612057,0.9115555286407471,0.03672129414975643,0.9900000095367432,0.0010000000474974513
0.26564829449479777,0.9311110973358154,0.018353332199156285,0.9940000176429749,0.0010000000474974513
0.576792627910773,0.7617777585983276,0.023054044514894484,0.9900000095367432,0.0010000000474974513
0.4359870195521249,0.8253333568572998,0.01271407288312912,0.9959999918937683,0.0010000000474974513
0.32630778203242355,0.8973333239555359,0.006504279606044293,1.0,0.0010000000474974513
0.25876442296347685,0.9355555772781372,0.013079638177528977,0.9940000176429749,0.0010000000474974513
0.35291681015822624,0.8768888711929321,0.018622034408152105,0.9900000095367432,0.0010000000474974513
0.9588312760723962,0.6808888912200928,0.02704944868385792,0.9900000095367432,0.0010000000474974513
1.1137466402848561,0.6884444355964661,0.018385468382388352,0.9919999837875366,0.0010000000474974513
0.5024027809246133,0.862666666507721,0.028133070528507234,0.9900000095367432,0.0010000000474974513
0.31408967130492804,0.9382222294807434,0.017305503465235232,0.9940000176429749,0.0010000000474974513
0.31861538592907085,0.9422222375869751,0.015271720468997956,0.9959999918937683,0.0010000000474974513
0.4158570944012867,0.9386666417121887,0.014431647807359695,0.9959999918937683,0.0010000000474974513
0.4685183933642175,0.8604444265365601,0.019182804703712465,0.9900000095367432,0.0010000000474974513
0.3740717883484645,0.9279999732971191,0.02420005516707897,0.9940000176429749,0.0010000000474974513
0.5283408243130479,0.8533333539962769,0.05224264620244503,0.984000027179718,0.0010000000474974513
0.8335185789664586,0.746666669845581,0.036465630121529105,0.9900000095367432,0.0010000000474974513
1.068576647175683,0.6968888640403748,0.037551664903759954,0.9879999756813049,0.0010000000474974513
0.4398222544973509,0.8688889145851135,0.01676914868503809,0.9959999918937683,0.0010000000474974513
0.5994286415742504,0.8177777528762817,0.017181163266301154,0.9940000176429749,0.0010000000474974513
0.41925138704354564,0.8937777876853943,0.009328154608607293,0.9980000257492065,0.0010000000474974513
0.7208393900146087,0.8057777881622314,0.01563062104396522,0.9959999918937683,0.0010000000474974513
0.8233957413368755,0.7711111307144165,0.006826389979571104,1.0,0.0010000000474974513
0.4904770512629507,0.8737778067588806,0.00472168093919754,1.0,0.0010000000474974513
0.42989931431906814,0.897777795791626,0.0019253078261390329,1.0,0.0010000000474974513
0.351802777426728,0.9248889088630676,0.0022235604422166945,1.0,0.0010000000474974513
0.3403526494273877,0.9288889169692993,0.0013218737915158272,1.0,0.0010000000474974513
0.33543516032991466,0.9266666769981384,0.0008258762108162046,1.0,0.0010000000474974513
0.37185791608178986,0.9075555801391602,0.001141520194709301,1.0,0.0010000000474974513
0.3634413682270226,0.913777768611908,0.0010284811072051525,1.0,0.0010000000474974513
0.3361620184228717,0.9311110973358154,0.001007854349911213,1.0,0.0010000000474974513
0.3292333929932922,0.9355555772781372,0.0005161418719217181,1.0,0.0010000000474974513
0.3342501478680513,0.9328888654708862,0.0006102449558675289,1.0,0.0010000000474974513
0.3392806369205161,0.9311110973358154,0.0004049330968409777,1.0,0.0010000000474974513
0.34158162262233804,0.9288889169692993,0.0003783564001787454,1.0,0.0010000000474974513
0.3396016539785261,0.93022221326828,0.0003659898318583146,1.0,0.0010000000474974513
0.337704507448413,0.9315555691719055,0.0003597428756766021,1.0,0.0010000000474974513
0.3411394213608647,0.9319999814033508,0.0005046122437343001,1.0,0.0010000000474974513
0.3392463868363864,0.9351111054420471,0.0004475549850612879,1.0,0.0010000000474974513
0.3409929149295462,0.9355555772781372,0.0003140767824370414,1.0,0.0010000000474974513
0.3443475376620837,0.9346666932106018,0.0003873937091557309,1.0,0.0010000000474974513
0.34513376622282277,0.9359999895095825,0.0004977598804980516,1.0,0.0010000000474974513
0.344978603052454,0.9382222294807434,0.00022368302498944104,1.0,0.0010000000474974513
0.34691984352344624,0.9355555772781372,0.00028314244950888677,1.0,0.0010000000474974513
0.34866248581797116,0.9359999895095825,0.0003566203843802214,1.0,0.0010000000474974513
0.35720644919772165,0.9324444532394409,0.0002885242475895211,1.0,0.0010000000474974513
0.3575273153622014,0.9337777495384216,0.0002506271348102018,1.0,0.0010000000474974513
0.3568326024078803,0.9346666932106018,0.00026441928441636264,1.0,0.0010000000474974513
0.3499793500889274,0.9399999976158142,0.0005212578994687647,1.0,0.0010000000474974513
0.35018549054959375,0.9404444694519043,0.00033513153600506484,1.0,0.0010000000474974513
0.35233067024596837,0.9395555257797241,0.00023609275254420935,1.0,0.0010000000474974513
0.35364850605564424,0.9391111135482788,0.00021803043049294503,1.0,0.0010000000474974513
0.35617392195683595,0.9399999976158142,0.00031637179804965855,1.0,0.0010000000474974513
0.3592406736024423,0.9408888816833496,0.0003951545231975615,1.0,0.0010000000474974513
0.36329666502064273,0.9413333535194397,0.00017629747383762152,1.0,0.0010000000474974513
0.3669819164719795,0.9408888816833496,0.0002672319625271484,1.0,0.0010000000474974513
0.3690133361796939,0.9408888816833496,0.00019491393654607237,1.0,0.0010000000474974513
0.3697645388173405,0.9408888816833496,0.00018755462300032376,1.0,0.0010000000474974513
0.37057717312863353,0.9408888816833496,0.00017761897970922292,1.0,0.0010000000474974513
0.37123025823029454,0.9413333535194397,0.00012432467303005978,1.0,0.0010000000474974513
0.3715883609772427,0.9408888816833496,0.0001772613520734012,1.0,0.0010000000474974513
0.3718503535920625,0.9408888816833496,0.00017454669927246868,1.0,0.0010000000474974513
0.37180366593821157,0.9399999976158142,0.00027689877757802603,1.0,0.0010000000474974513
0.3721194921419568,0.9404444694519043,0.00013784179161302745,1.0,0.0010000000474974513
0.3729041863910259,0.9404444694519043,0.00013987554842606186,1.0,0.0010000000474974513
0.3750241931657527,0.9404444694519043,0.00016002410929650068,1.0,0.0010000000474974513
0.3767057425843345,0.9399999976158142,0.0001847021235153079,1.0,0.0010000000474974513
0.37669554995100935,0.9395555257797241,0.00017143345833756028,1.0,0.0010000000474974513
0.37758591539363584,0.9391111135482788,0.0002645021702628583,1.0,0.0010000000474974513
0.37832793234516027,0.9399999976158142,0.0001377258540596813,1.0,0.0010000000474974513
0.3793025614563602,0.9399999976158142,0.00014427825470920652,1.0,0.0010000000474974513
0.38026567049978705,0.9399999976158142,0.00013969379791524262,1.0,0.0010000000474974513
0.3802865540078233,0.9399999976158142,0.00014257119147805498,1.0,0.0010000000474974513
0.3800204881977277,0.9399999976158142,0.00014733961632009594,1.0,0.0010000000474974513
0.37884226358205586,0.9399999976158142,0.00024229228519834578,1.0,0.0010000000474974513
0.377896983400634,0.9382222294807434,0.00015181433432735503,1.0,0.0010000000474974513
0.37878394893771555,0.9359999895095825,0.00022443102771649138,1.0,0.0010000000474974513
0.378759987018595,0.9346666932106018,0.00019600587175227702,1.0,0.0010000000474974513
0.37810278196630276,0.9359999895095825,0.00017181720648659393,1.0,0.0010000000474974513
0.3778530987464021,0.9377777576446533,0.0001150166594889015,1.0,0.0010000000474974513
0.3782496135349696,0.9386666417121887,0.00012316566763911397,1.0,0.0010000000474974513
0.37932888474679527,0.9391111135482788,0.00010304241382982582,1.0,0.0010000000474974513
0.38070136190914006,0.9382222294807434,0.00017164792283438145,1.0,0.0010000000474974513
0.3817238446235747,0.9382222294807434,9.348286339081824e-05,1.0,0.0010000000474974513
0.38535011878739334,0.937333345413208,0.00016222892608493567,1.0,0.0010000000474974513
0.38697502129974437,0.9368888735771179,0.00018322973628528416,1.0,0.0010000000474974513
0.38817638173723307,0.9368888735771179,0.00012236140354070812,1.0,0.0010000000474974513
0.3895880475996237,0.9364444613456726,0.00010819293226813897,1.0,0.0010000000474974513
0.39052249886156964,0.9382222294807434,0.00010850024467799813,1.0,0.0010000000474974513
0.3913220024009449,0.9386666417121887,0.0001271219031768851,1.0,0.0010000000474974513
0.3910893239366867,0.9399999976158142,0.00012950192316202446,1.0,0.0010000000474974513
0.39064159106434737,0.9399999976158142,0.00012357228738255798,1.0,0.0010000000474974513
0.3909934099707914,0.9395555257797241,0.0001098353230045177,1.0,0.0010000000474974513
0.39160187664930707,0.9395555257797241,0.0001041944746975787,1.0,0.0010000000474974513
0.39236575401503876,0.9395555257797241,0.0001279353043064475,1.0,0.0010000000474974513
0.3912815922547953,0.9386666417121887,0.00011690792752779088,1.0,0.0010000000474974513
0.39149216078880517,0.9386666417121887,8.64609390264377e-05,1.0,0.0010000000474974513
0.3922084291702227,0.9382222294807434,0.00010818014765391126,1.0,0.0010000000474974513
0.39284011410339736,0.9337777495384216,0.00019509227573871613,1.0,0.0010000000474974513
0.39099958736211476,0.9355555772781372,0.0001516374869388528,1.0,0.0010000000474974513
0.38893274936333827,0.9359999895095825,8.328990809968672e-05,1.0,0.0010000000474974513
0.39000251588551005,0.9386666417121887,0.0001129963475978002,1.0,0.0010000000474974513
0.39241428554102054,0.9395555257797241,8.824900479521602e-05,1.0,0.0010000000474974513
0.3942554219451526,0.9395555257797241,7.756626984337344e-05,1.0,0.0010000000474974513
0.39605605436625774,0.9359999895095825,0.00021382196072954683,1.0,0.0010000000474974513
0.3992444380522227,0.9342222213745117,9.008600155357272e-05,1.0,0.0010000000474974513
0.39799760308848153,0.9346666932106018,0.00014899221298401245,1.0,0.0010000000474974513
0.39719118657874386,0.9359999895095825,0.00011484563373960554,1.0,0.0010000000474974513
0.3985812196668121,0.9364444613456726,7.543848949717358e-05,1.0,0.0010000000474974513
0.4003279513733028,0.9377777576446533,6.945838610408827e-05,1.0,0.0010000000474974513
0.40227967245941465,0.937333345413208,0.00011395989509765059,1.0,0.0010000000474974513
0.40321145947414494,0.9377777576446533,0.0001651687219273299,1.0,0.0010000000474974513
0.4045640304582339,0.937333345413208,0.00012417296890635045,1.0,0.0010000000474974513
0.4058981608247753,0.9399999976158142,9.136106801452115e-05,1.0,0.0010000000474974513
0.40594810631125033,0.9382222294807434,8.991719299228861e-05,1.0,0.0010000000474974513
0.40651586889810765,0.9377777576446533,7.630211510695517e-05,1.0,0.0010000000474974513
0.40634204101137905,0.937333345413208,7.127214327920228e-05,1.0,0.0010000000474974513
0.40653153731703384,0.937333345413208,7.080900832079351e-05,1.0,0.0010000000474974513
0.4064196304177458,0.9368888735771179,7.434969447785988e-05,1.0,0.0010000000474974513
0.40676881567294026,0.937333345413208,0.00018722103151958436,1.0,0.0010000000474974513
0.407945411572878,0.9359999895095825,8.67150203557685e-05,1.0,0.0010000000474974513
0.4079388204643296,0.9359999895095825,8.615211921278388e-05,1.0,0.0010000000474974513
0.40850436734808154,0.9359999895095825,4.730097897117958e-05,1.0,0.0010000000474974513
0.40907311004653457,0.9351111054420471,9.315212396904826e-05,1.0,0.0010000000474974513
0.4098162767583789,0.9351111054420471,7.03885232214816e-05,1.0,0.0010000000474974513
0.40953223159218516,0.9355555772781372,8.646941895131022e-05,1.0,0.0010000000474974513
0.40738032658471557,0.9364444613456726,0.0001265283283428289,1.0,0.0010000000474974513
0.4069966367309955,0.9391111135482788,0.00010304941108915955,1.0,0.0010000000474974513
0.4079688389532708,0.9391111135482788,0.00011782480683177709,1.0,0.0010000000474974513
0.407656707310024,0.9391111135482788,4.7938888979842885e-05,1.0,0.0010000000474974513
0.4079607093038519,0.9395555257797241,6.514787464402616e-05,1.0,0.0005000000237487257
0.40818627100213134,0.9391111135482788,6.61605080240406e-05,1.0,0.0005000000237487257
0.40886552193123177,0.9391111135482788,0.00011220369208604098,1.0,0.0005000000237487257
0.4102632020808378,0.9386666417121887,4.954984289361164e-05,1.0,0.0005000000237487257
0.41120988236164296,0.9382222294807434,3.892731963424012e-05,1.0,0.0005000000237487257
0.41175268623171724,0.9368888735771179,0.00012212205125251786,1.0,0.0005000000237487257
0.41206624422768395,0.9364444613456726,5.729884652828332e-05,1.0,0.0005000000237487257
0.4123024773565929,0.9368888735771179,0.0001586571231018752,1.0,0.0005000000237487257
0.4111142190799809,0.9386666417121887,6.804042716976255e-05,1.0,0.0005000000237487257
0.4108858660566071,0.9395555257797241,4.3459065404022115e-05,1.0,0.0005000000237487257
0.4110220339538517,0.9399999976158142,5.7346058398252355e-05,1.0,0.0005000000237487257
0.4113696703621665,0.9395555257797241,5.882128258235752e-05,1.0,0.0005000000237487257
0.4113660916198957,0.9395555257797241,4.3055432295659556e-05,1.0,0.0005000000237487257
0.4116478683131702,0.9391111135482788,4.8580499715171755e-05,1.0,0.0005000000237487257
0.41208222010179046,0.9382222294807434,5.510752461850643e-05,1.0,0.0005000000237487257
0.4126007147607678,0.9382222294807434,6.257301371078938e-05,1.0,0.0005000000237487257
0.4131979216183794,0.9382222294807434,5.3383870399557056e-05,1.0,0.0005000000237487257
0.41361929254857627,0.9386666417121887,5.199779957183637e-05,1.0,0.0005000000237487257
0.41419416819489235,0.9386666417121887,4.678760678507388e-05,1.0,0.0005000000237487257
0.4138340291692083,0.9386666417121887,9.100448846584186e-05,1.0,0.0005000000237487257
0.4138060304833747,0.9391111135482788,5.644315498648211e-05,1.0,0.0005000000237487257
0.4139717469725842,0.9391111135482788,5.6667109893169256e-05,1.0,0.0005000000237487257
0.41412675510332986,0.9391111135482788,5.143121030414477e-05,1.0,0.0005000000237487257
0.4147787429208822,0.9391111135482788,7.275079112150707e-05,1.0,0.0005000000237487257
0.4153540079311578,0.9391111135482788,6.250465076300316e-05,1.0,0.0005000000237487257
0.41511919344627757,0.9391111135482788,5.9861914473003705e-05,1.0,0.0005000000237487257
0.4148848282479432,0.9391111135482788,5.9279680135659875e-05,1.0,0.0005000000237487257
0.4145830813497046,0.9386666417121887,5.477306968532503e-05,1.0,0.0005000000237487257
0.41471937754252575,0.9386666417121887,5.9995438903570176e-05,1.0,0.0005000000237487257
0.4137632729459454,0.9386666417121887,7.500288973096758e-05,1.0,0.0005000000237487257
0.4130577026188419,0.9382222294807434,4.762525507248938e-05,1.0,0.0005000000237487257
0.41293598270217385,0.9382222294807434,4.6186509367544205e-05,1.0,0.0005000000237487257
0.4131737515377188,0.9382222294807434,3.9527230896055696e-05,1.0,0.0005000000237487257
0.4136834486837583,0.9386666417121887,6.293168911361136e-05,1.0,0.0005000000237487257
0.4147993819959019,0.9382222294807434,0.00010612059955019503,1.0,0.0005000000237487257
0.4165186180780535,0.9368888735771179,6.091920769540593e-05,1.0,0.0005000000237487257
0.41690307778568886,0.9377777576446533,9.046424806001596e-05,1.0,0.0005000000237487257
0.41718368797652106,0.9377777576446533,8.809093397576362e-05,1.0,0.0005000000237487257
0.4174858008738245,0.9386666417121887,7.010539434850216e-05,1.0,0.0005000000237487257
0.4177398735400978,0.9386666417121887,5.918322937213816e-05,1.0,0.0005000000237487257
0.41795112267973955,0.9386666417121887,7.599965739063919e-05,1.0,0.0005000000237487257
0.4173623778804144,0.9386666417121887,0.0001742811312433332,1.0,0.0005000000237487257
0.41695152460028473,0.937333345413208,6.391624032403342e-05,1.0,0.0005000000237487257
0.4157230618248173,0.9377777576446533,7.130218352540396e-05,1.0,0.0005000000237487257
0.41549179193547914,0.9377777576446533,7.625141338212416e-05,1.0,0.0005000000237487257
0.4156765050607339,0.937333345413208,3.970188944367692e-05,1.0,0.0005000000237487257
0.41652384628030836,0.9377777576446533,7.054533986956813e-05,1.0,0.0005000000237487257
0.41716546339307875,0.9382222294807434,3.699249756755307e-05,1.0,0.0005000000237487257
0.417840199442569,0.9386666417121887,4.2632194177713243e-05,1.0,0.0005000000237487257
0.41867040128027533,0.9382222294807434,8.435605553677306e-05,1.0,0.0005000000237487257
0.41946361107137475,0.9382222294807434,3.457559217349626e-05,1.0,0.0002500000118743628
0.42002317476114454,0.9377777576446533,6.31061980384402e-05,1.0,0.0002500000118743628
0.4203521211661573,0.9377777576446533,3.611371385341044e-05,1.0,0.0002500000118743628
0.42069474842662913,0.9382222294807434,5.593359988415614e-05,1.0,0.0002500000118743628
0.4209576386596018,0.9382222294807434,5.3988883388228716e-05,1.0,0.0002500000118743628
0.4208982775462371,0.9382222294807434,4.297783185029402e-05,1.0,0.0002500000118743628
0.4209781639297548,0.9386666417121887,3.9703177113551645e-05,1.0,0.0002500000118743628
0.42134568224872054,0.9382222294807434,9.398327875533141e-05,1.0,0.0002500000118743628
0.4222720489220228,0.9368888735771179,4.491925786715001e-05,1.0,0.0002500000118743628
0.4229723972726691,0.937333345413208,7.718110829591751e-05,1.0,0.0002500000118743628
0.42369658088500406,0.9377777576446533,8.893771574366837e-05,1.0,0.0002500000118743628
0.42309334144155664,0.9382222294807434,6.701597123173997e-05,1.0,0.0002500000118743628
0.423168911746868,0.9377777576446533,4.3529601767659184e-05,1.0,0.0002500000118743628
0.42344738042199526,0.9377777576446533,5.903991620289162e-05,1.0,0.0002500000118743628
0.4235632953364305,0.937333345413208,6.289383862167596e-05,1.0,0.0002500000118743628
0.4235373760315609,0.9377777576446533,5.867480661254376e-05,1.0,0.0002500000118743628
0.4234238864700003,0.9377777576446533,0.0001459257628303021,1.0,0.0002500000118743628
0.42331275378161326,0.9359999895095825,3.7254620023304596e-05,1.0,0.0002500000118743628
0.42429420961097153,0.9359999895095825,7.171279012982267e-05,1.0,0.0002500000118743628
0.4241862164586734,0.9364444613456726,5.15510843397351e-05,1.0,0.0002500000118743628
0.4242136375358354,0.9359999895095825,4.036615281074774e-05,1.0,0.0002500000118743628
0.4245725823493493,0.9359999895095825,9.535228437744082e-05,1.0,0.0002500000118743628
0.4246941207766439,0.9368888735771179,6.290738371899351e-05,1.0,0.0002500000118743628
0.4245498362634777,0.937333345413208,3.3592688239878045e-05,1.0,0.0002500000118743628
0.4242725386342839,0.937333345413208,6.882640637923032e-05,1.0,0.0002500000118743628
0.4247592063997145,0.9377777576446533,6.285422533983364e-05,1.0,0.0002500000118743628
0.4251437713821829,0.9377777576446533,4.3431185215013104e-05,1.0,0.0002500000118743628
0.42533232739107757,0.937333345413208,5.460463732015341e-05,1.0,0.0002500000118743628
0.4256301797483676,0.9368888735771179,4.9201912595890464e-05,1.0,0.0002500000118743628
0.42594130484142484,0.9368888735771179,4.019317944766953e-05,1.0,0.0002500000118743628
0.4262072392292935,0.9368888735771179,3.0738368222955615e-05,1.0,0.0002500000118743628
0.42635307727805855,0.9368888735771179,3.5435213387245315e-05,1.0,0.0002500000118743628
0.4265614873424654,0.9377777576446533,3.0297208024421705e-05,1.0,0.0002500000118743628
0.4266806032514303,0.9382222294807434,2.8762107627699152e-05,1.0,0.0002500000118743628
0.42678264695964835,0.9382222294807434,6.992483077920041e-05,1.0,0.0002500000118743628
0.42682421117260433,0.9382222294807434,2.840152767021209e-05,1.0,0.0002500000118743628
0.42661981234184754,0.9386666417121887,7.628844861756078e-05,1.0,0.0002500000118743628
0.42637746524689846,0.9382222294807434,7.42555009201169e-05,1.0,0.0002500000118743628
0.4265062578507447,0.9382222294807434,2.8239120249054395e-05,1.0,0.0002500000118743628
0.4267157963899889,0.9382222294807434,4.9088894302258266e-05,1.0,0.0002500000118743628
0.42699786869567957,0.9382222294807434,5.310805817134678e-05,1.0,0.0002500000118743628
0.4267353862909383,0.9382222294807434,6.372614455176518e-05,1.0,0.0002500000118743628
0.4269686549493005,0.9382222294807434,4.6037744148634375e-05,1.0,0.0002500000118743628
0.4271640467897297,0.9377777576446533,4.831846168963239e-05,1.0,0.0002500000118743628
0.4272069279739387,0.9382222294807434,3.541653350112028e-05,1.0,0.0002500000118743628
0.42714175046708824,0.9382222294807434,4.332970827817917e-05,1.0,0.0002500000118743628
0.42703755493848117,0.9382222294807434,3.9969401026610285e-05,1.0,0.0002500000118743628
0.4270998260037037,0.9382222294807434,6.311429850757122e-05,1.0,0.0002500000118743628
0.4272767851209703,0.9382222294807434,4.71188296796754e-05,1.0,0.0002500000118743628
0.42761789165491065,0.9382222294807434,5.159618513425812e-05,1.0,0.0002500000118743628
0.42765845837743677,0.9382222294807434,5.145207182795275e-05,1.0,0.0001250000059371814
0.427604019746688,0.9386666417121887,3.626093368802685e-05,1.0,0.0001250000059371814
0.42769170911992194,0.9386666417121887,3.06110064702807e-05,1.0,0.0001250000059371814
0.42758503428971584,0.9382222294807434,8.972947392612696e-05,1.0,0.0001250000059371814
0.4276364034269322,0.9377777576446533,4.963247512932867e-05,1.0,0.0001250000059371814
0.42800619269615464,0.9377777576446533,5.408548918785527e-05,1.0,0.0001250000059371814
0.4282079058740702,0.9377777576446533,3.8115978735731916e-05,1.0,0.0001250000059371814
0.4282679209564618,0.9382222294807434,5.111698442487977e-05,1.0,0.0001250000059371814
0.428200139388898,0.9377777576446533,3.1480510777328165e-05,1.0,0.0001250000059371814
0.428106231569057,0.9382222294807434,6.601283448981121e-05,1.0,0.0001250000059371814
0.42782582880275327,0.9382222294807434,5.670769589778501e-05,1.0,0.0001250000059371814
0.4276219470092538,0.9386666417121887,5.588699469808489e-05,1.0,0.0001250000059371814
0.42761298572906686,0.9386666417121887,3.6475719389272855e-05,1.0,0.0001250000059371814
0.42763839218243405,0.9386666417121887,3.488571205525659e-05,1.0,0.0001250000059371814
0.4275749789863209,0.9386666417121887,3.567755711264908e-05,1.0,0.0001250000059371814
0.4275490770329181,0.9382222294807434,5.7303697161842135e-05,1.0,0.0001250000059371814
0.4276685105948652,0.9382222294807434,3.884482772264164e-05,1.0,0.0001250000059371814
0.4277275548632606,0.9382222294807434,4.17452902183868e-05,1.0,0.0001250000059371814
0.42771591758622446,0.9382222294807434,3.7706541537772864e-05,1.0,0.0001250000059371814
0.42779753212031374,0.9382222294807434,3.668875404400751e-05,1.0,0.0001250000059371814
0.42772118390829966,0.9382222294807434,3.362210936029442e-05,1.0,0.0001250000059371814
0.42772045653297874,0.9382222294807434,3.560478374129161e-05,1.0,0.0001250000059371814
0.42750261085463637,0.9386666417121887,8.06227307766676e-05,1.0,0.0001250000059371814
0.42696416350100963,0.9386666417121887,3.347499473602511e-05,1.0,0.0001250000059371814
0.42668673174804844,0.9382222294807434,3.154508328589145e-05,1.0,0.0001250000059371814
0.4265707510301929,0.9382222294807434,2.9604433424538003e-05,1.0,0.0001250000059371814
0.42656081811483376,0.9382222294807434,3.750184601813089e-05,1.0,0.0001250000059371814
0.42666186412071855,0.9382222294807434,4.424306377768516e-05,1.0,0.0001250000059371814
0.42713587016430715,0.9382222294807434,0.0001895184435416013,1.0,0.0001250000059371814
0.4291543322528677,0.937333345413208,4.490149667253718e-05,1.0,0.0001250000059371814
0.4301911462670275,0.937333345413208,4.767767088196706e-05,1.0,0.0001250000059371814
0.4307062574749596,0.9355555772781372,6.0506258072564376e-05,1.0,0.0001250000059371814
0.4309105965818308,0.9359999895095825,4.996548651251942e-05,1.0,0.0001250000059371814
0.43117941951666905,0.9355555772781372,5.2189748792443426e-05,1.0,0.0001250000059371814
0.43126943861026507,0.9355555772781372,3.0163151328451932e-05,1.0,0.0001250000059371814
0.43132652740920213,0.9359999895095825,4.544176207855344e-05,1.0,0.0001250000059371814
0.4314377055159348,0.9359999895095825,3.7051607097964736e-05,1.0,0.0001250000059371814
0.43160663959628354,0.9368888735771179,4.721231528674252e-05,1.0,0.0001250000059371814
0.4317174168684028,0.9368888735771179,3.770431013253983e-05,1.0,0.0001250000059371814
0.4316549174909548,0.9368888735771179,2.6862078986596318e-05,1.0,0.0001250000059371814
0.4315014206559911,0.9368888735771179,4.8119175422471015e-05,1.0,0.0001250000059371814
0.4313846593027233,0.9368888735771179,4.045420400507283e-05,1.0,0.0001250000059371814
0.43131804431726617,0.9368888735771179,4.397825649357401e-05,1.0,0.0001250000059371814
0.43124046562694923,0.9368888735771179,4.595634213183075e-05,1.0,0.0001250000059371814
0.4310488182430482,0.9368888735771179,3.685722358932253e-05,1.0,0.0001250000059371814
0.4310053515823238,0.9368888735771179,4.1333616827614606e-05,1.0,0.0001250000059371814
0.43097790351093623,0.9368888735771179,4.949050300638192e-05,1.0,0.0001250000059371814
0.43111628406482083,0.9377777576446533,0.00011693891108734534,1.0,0.0001250000059371814
0.43112813435558117,0.9377777576446533,3.736353237763978e-05,1.0,0.0001250000059371814
0.43137231545870275,0.9368888735771179,8.214085223153233e-05,1.0,0.0001250000059371814
0.4314374413082179,0.937333345413208,5.6742978340480474e-05,1.0,9.999999747378752e-05
0.4314270038329083,0.9377777576446533,5.243690942734247e-05,1.0,9.999999747378752e-05
0.431475634467864,0.9377777576446533,5.8931082749040796e-05,1.0,9.999999747378752e-05
0.4313651895115343,0.9377777576446533,5.512102873763069e-05,1.0,9.999999747378752e-05
0.43129512917893426,0.9377777576446533,4.137768884538673e-05,1.0,9.999999747378752e-05
0.43128215969832673,0.9377777576446533,3.954362467629835e-05,1.0,9.999999747378752e-05
0.43133136041863246,0.9377777576446533,6.657892050861847e-05,1.0,9.999999747378752e-05
0.43138826831090005,0.9377777576446533,5.329020030330867e-05,1.0,9.999999747378752e-05
0.4313717546719062,0.9377777576446533,5.494780489243567e-05,1.0,9.999999747378752e-05
0.4314524493341127,0.9377777576446533,3.394753532484174e-05,1.0,9.999999747378752e-05
0.43142954635534586,0.9377777576446533,2.786537233623676e-05,1.0,9.999999747378752e-05
0.431468616736419,0.9377777576446533,7.871912769041956e-05,1.0,9.999999747378752e-05
0.43143135649535624,0.9377777576446533,6.391135245212354e-05,1.0,9.999999747378752e-05
0.43139479369491085,0.9377777576446533,4.438080420368351e-05,1.0,9.999999747378752e-05
0.43126793708970296,0.9377777576446533,2.9717347235418855e-05,1.0,9.999999747378752e-05
0.43120879963939335,0.9377777576446533,3.267754055559635e-05,1.0,9.999999747378752e-05
0.4314073501550609,0.9377777576446533,7.886036415584385e-05,1.0,9.999999747378752e-05
0.43146728183063854,0.9377777576446533,3.541317617055029e-05,1.0,9.999999747378752e-05
0.43120546421633155,0.9382222294807434,8.67346443264978e-05,1.0,9.999999747378752e-05
0.43098908731558105,0.9382222294807434,4.451520409202203e-05,1.0,9.999999747378752e-05
0.43073360889371864,0.9382222294807434,4.177571598847862e-05,1.0,9.999999747378752e-05
0.43069442372736944,0.9382222294807434,3.061524576332886e-05,1.0,9.999999747378752e-05
0.43069041252025153,0.9382222294807434,2.494714745262172e-05,1.0,9.999999747378752e-05
0.430638323544409,0.9382222294807434,3.9501545645180155e-05,1.0,9.999999747378752e-05
0.4306962307416769,0.9382222294807434,2.6423004776006563e-05,1.0,9.999999747378752e-05
0.43084917852516486,0.9382222294807434,4.787049477454275e-05,1.0,9.999999747378752e-05
0.43101452982333366,0.9382222294807434,4.515691287815571e-05,1.0,9.999999747378752e-05
0.43119193025340713,0.9382222294807434,4.012993484502658e-05,1.0,9.999999747378752e-05
0.43110293716766074,0.9382222294807434,4.0780092298518864e-05,1.0,9.999999747378752e-05
0.4311248284039571,0.9382222294807434,3.819080523680895e-05,1.0,9.999999747378752e-05
0.4313288015515435,0.9382222294807434,3.271083399886266e-05,1.0,9.999999747378752e-05
0.43137255942731606,0.9382222294807434,4.019615950528532e-05,1.0,9.999999747378752e-05
0.4315602847858431,0.9382222294807434,4.153333583963104e-05,1.0,9.999999747378752e-05
0.4316013978578283,0.9382222294807434,3.734758420614526e-05,1.0,9.999999747378752e-05
0.4314377583388891,0.9382222294807434,4.5671374071389434e-05,1.0,9.999999747378752e-05
0.43081492639817426,0.9382222294807434,9.381081216270104e-05,1.0,9.999999747378752e-05
0.43052564342719496,0.937333345413208,3.699954652984161e-05,1.0,9.999999747378752e-05
0.4306255371163837,0.937333345413208,4.380603398021776e-05,1.0,9.999999747378752e-05
0.4307461356577624,0.937333345413208,3.3312856627162544e-05,1.0,9.999999747378752e-05
0.43094226203933794,0.937333345413208,3.7759994345833545e-05,1.0,9.999999747378752e-05
0.43079386774611017,0.9377777576446533,4.7025263134855774e-05,1.0,9.999999747378752e-05
0.43023487632706947,0.9377777576446533,9.247919789049775e-05,1.0,9.999999747378752e-05
0.43005040966038927,0.9377777576446533,3.936154079565313e-05,1.0,9.999999747378752e-05
0.43001402528982563,0.9382222294807434,2.204142275149934e-05,1.0,9.999999747378752e-05
0.43023941069080807,0.9382222294807434,5.508797892252915e-05,1.0,9.999999747378752e-05
0.4302229507886999,0.9382222294807434,5.079112725798041e-05,1.0,9.999999747378752e-05
0.43024526531070784,0.9382222294807434,3.702500858344138e-05,1.0,9.999999747378752e-05
0.4302524228351459,0.9382222294807434,4.66242911061272e-05,1.0,9.999999747378752e-05
0.43028771600359483,0.9382222294807434,3.428257031191606e-05,1.0,9.999999747378752e-05
0.43044139329490766,0.9377777576446533,2.1636990626575427e-05,1.0,9.999999747378752e-05
0.43062879502675544,0.9377777576446533,4.991765070008114e-05,1.0,9.999999747378752e-05
0.4307968689061025,0.937333345413208,4.0869306889362634e-05,1.0,9.999999747378752e-05
0.43085473057862933,0.937333345413208,5.6791696290019896e-05,1.0,9.999999747378752e-05
0.4307626573103027,0.937333345413208,3.221399686299264e-05,1.0,9.999999747378752e-05
0.4306888934364793,0.937333345413208,3.2536731305299325e-05,1.0,9.999999747378752e-05
0.43070848935093575,0.937333345413208,4.411513841478154e-05,1.0,9.999999747378752e-05
0.43082758525923337,0.937333345413208,2.7906853327294812e-05,1.0,9.999999747378752e-05
0.4308696603237056,0.937333345413208,2.3772621105308646e-05,1.0,9.999999747378752e-05
0.430978749565806,0.937333345413208,2.979554407647811e-05,1.0,9.999999747378752e-05
0.4309430899877213,0.937333345413208,3.4410274354740977e-05,1.0,9.999999747378752e-05
0.4309591903811209,0.937333345413208,3.899718378670513e-05,1.0,9.999999747378752e-05
0.43101139473836764,0.9377777576446533,3.6538189364364373e-05,1.0,9.999999747378752e-05
0.4309920743166246,0.9377777576446533,2.9533228138461708e-05,1.0,9.999999747378752e-05
0.4309960713511084,0.9377777576446533,4.029955573787447e-05,1.0,9.999999747378752e-05
0.4309478187420609,0.9377777576446533,2.8565219698066358e-05,1.0,9.999999747378752e-05
0.4310517371090375,0.9377777576446533,4.510286210279446e-05,1.0,9.999999747378752e-05
0.43115884873525645,0.9377777576446533,3.043179155793041e-05,1.0,9.999999747378752e-05
0.4312157913306469,0.9377777576446533,2.907607924134936e-05,1.0,9.999999747378752e-05
0.4313255547211544,0.9377777576446533,4.791800043312833e-05,1.0,9.999999747378752e-05
0.4317093344853355,0.9382222294807434,6.049628084292635e-05,1.0,9.999999747378752e-05
0.4319290225101035,0.9382222294807434,2.263495394436177e-05,1.0,9.999999747378752e-05
0.43204976814249274,0.9382222294807434,2.202893715002574e-05,1.0,9.999999747378752e-05
0.4321184539588972,0.9382222294807434,4.877841242705472e-05,1.0,9.999999747378752e-05
0.4319984323971003,0.9382222294807434,4.412724172289018e-05,1.0,9.999999747378752e-05
0.4320271695977111,0.9382222294807434,3.138845288776793e-05,1.0,9.999999747378752e-05
0.431967925666998,0.9382222294807434,2.4586630112025886e-05,1.0,9.999999747378752e-05
0.43234719774377783,0.9382222294807434,6.786502338945865e-05,1.0,9.999999747378752e-05
0.43295898287742685,0.9382222294807434,3.952895173279103e-05,1.0,9.999999747378752e-05
0.43328500453549107,0.9382222294807434,2.6357408671174197e-05,1.0,9.999999747378752e-05
0.4335028937384551,0.9382222294807434,4.634749423712492e-05,1.0,9.999999747378752e-05
0.43356064122170773,0.9377777576446533,2.656682788801845e-05,1.0,9.999999747378752e-05
0.4337364214518077,0.9377777576446533,3.027307998854667e-05,1.0,9.999999747378752e-05
0.4340991697568469,0.9377777576446533,5.8304337107983885e-05,1.0,9.999999747378752e-05
0.43422949801474736,0.9377777576446533,3.913675580406561e-05,1.0,9.999999747378752e-05
0.4341828048353863,0.9377777576446533,6.870553782209754e-05,1.0,9.999999747378752e-05
0.4340540871877254,0.9377777576446533,4.5215381251182405e-05,1.0,9.999999747378752e-05
0.43377679163801075,0.9377777576446533,3.246285446221009e-05,1.0,9.999999747378752e-05
0.4337559618809545,0.9377777576446533,4.334294993896037e-05,1.0,9.999999747378752e-05
0.4337495601301974,0.9377777576446533,4.2113968782359735e-05,1.0,9.999999747378752e-05
0.4335391322631759,0.937333345413208,3.587095293914899e-05,1.0,9.999999747378752e-05
0.43340650439190437,0.937333345413208,3.267746651545167e-05,1.0,9.999999747378752e-05
0.4331383282203533,0.9377777576446533,5.79480150481686e-05,1.0,9.999999747378752e-05
0.433041779583586,0.9377777576446533,2.1120371275173967e-05,1.0,9.999999747378752e-05
0.43311386789138406,0.9377777576446533,2.9441930120810865e-05,1.0,9.999999747378752e-05
0.4332766509048217,0.9377777576446533,3.962173743639141e-05,1.0,9.999999747378752e-05
0.433350395678625,0.9382222294807434,0.0001294403257779777,1.0,9.999999747378752e-05
0.4339115026913423,0.9377777576446533,4.802188609028235e-05,1.0,9.999999747378752e-05
0.4345089251056504,0.9377777576446533,2.5214035907993094e-05,1.0,9.999999747378752e-05
0.4349709437544217,0.9377777576446533,4.145356529625133e-05,1.0,9.999999747378752e-05
0.4354149491113567,0.9377777576446533,4.13994682894554e-05,1.0,9.999999747378752e-05
0.4355149099286128,0.9377777576446533,2.2661786584649234e-05,1.0,9.999999747378752e-05
0.4354481879727237,0.9377777576446533,3.341178369009867e-05,1.0,9.999999747378752e-05
0.43545845720403387,0.9377777576446533,3.1881103961495684e-05,1.0,9.999999747378752e-05
0.43536856298882776,0.9377777576446533,2.5883649694151244e-05,1.0,9.999999747378752e-05
0.4353970654929176,0.9377777576446533,3.975653730594786e-05,1.0,9.999999747378752e-05
0.4357329515870095,0.9368888735771179,0.0001380898039933527,1.0,9.999999747378752e-05
0.43638066030732364,0.9368888735771179,2.444358984939754e-05,1.0,9.999999747378752e-05
0.43722760918254144,0.9368888735771179,6.0803141139331275e-05,1.0,9.999999747378752e-05
0.4379447364526568,0.9368888735771179,5.78616694547236e-05,1.0,9.999999747378752e-05
0.4377376269352729,0.937333345413208,3.3943959453608844e-05,1.0,9.999999747378752e-05
0.43747698933417756,0.937333345413208,2.676776955195237e-05,1.0,9.999999747378752e-05
0.43741581393491086,0.937333345413208,4.213846102356911e-05,1.0,9.999999747378752e-05
0.43742330283474923,0.937333345413208,2.859046703088097e-05,1.0,9.999999747378752e-05
0.4373570264169814,0.937333345413208,4.029025248019025e-05,1.0,9.999999747378752e-05
0.437380977126279,0.9368888735771179,2.2110343852546066e-05,1.0,9.999999747378752e-05
0.4374605364525139,0.9368888735771179,4.104864568216726e-05,1.0,9.999999747378752e-05
0.4374591381408698,0.937333345413208,7.93905243917834e-05,1.0,9.999999747378752e-05
0.43732758976273745,0.9368888735771179,4.3121396680362524e-05,1.0,9.999999747378752e-05
0.43720962831631754,0.937333345413208,2.446266866172664e-05,1.0,9.999999747378752e-05
0.4372802483498332,0.9368888735771179,3.7684877926949414e-05,1.0,9.999999747378752e-05
0.4372834692258774,0.9368888735771179,3.829159817541949e-05,1.0,9.999999747378752e-05
0.4369946281107372,0.937333345413208,5.784520694578532e-05,1.0,9.999999747378752e-05
0.43691075258705114,0.937333345413208,3.758786897378741e-05,1.0,9.999999747378752e-05
0.4368218959429489,0.937333345413208,2.878778174635954e-05,1.0,9.999999747378752e-05
0.436834287563144,0.937333345413208,2.8216232138220222e-05,1.0,9.999999747378752e-05
0.43683708488860185,0.937333345413208,2.6118411420611666e-05,1.0,9.999999747378752e-05
0.4368698502903426,0.937333345413208,2.6200228166999295e-05,1.0,9.999999747378752e-05
0.43695260629312543,0.937333345413208,3.0451134138274937e-05,1.0,9.999999747378752e-05
0.43698171789042195,0.9377777576446533,3.6855370955890976e-05,1.0,9.999999747378752e-05
0.43708022863263934,0.9382222294807434,6.216513739491348e-05,1.0,9.999999747378752e-05
0.4370460294875399,0.9377777576446533,3.613049775594845e-05,1.0,9.999999747378752e-05
0.4368520785695453,0.9382222294807434,3.373586923407856e-05,1.0,9.999999747378752e-05
0.4367443644860905,0.9382222294807434,2.6689620994147846e-05,1.0,9.999999747378752e-05
0.43697124544710175,0.9382222294807434,3.500067519780714e-05,1.0,9.999999747378752e-05
0.4373941256595766,0.9382222294807434,4.6656548322062006e-05,1.0,9.999999747378752e-05
0.43741016750796713,0.9382222294807434,1.8453679760568774e-05,1.0,9.999999747378752e-05
0.4374357934785868,0.9382222294807434,3.3804831764427946e-05,1.0,9.999999747378752e-05
0.43739636628428546,0.9382222294807434,3.75670182693284e-05,1.0,9.999999747378752e-05
0.4374952306410107,0.9382222294807434,6.896806589793414e-05,1.0,9.999999747378752e-05
0.43739508652622966,0.9382222294807434,3.053256354178302e-05,1.0,9.999999747378752e-05
0.4372314778030203,0.9382222294807434,5.28558500809595e-05,1.0,9.999999747378752e-05
0.4370676510791131,0.9382222294807434,2.5481639182544315e-05,1.0,9.999999747378752e-05
0.43709980016218386,0.9382222294807434,2.5395507254870608e-05,1.0,9.999999747378752e-05
0.43708833857312374,0.9382222294807434,4.168799708713777e-05,1.0,9.999999747378752e-05
0.4372140114234895,0.9382222294807434,3.215309855295345e-05,1.0,9.999999747378752e-05
0.4364953677781199,0.9382222294807434,6.288997740193735e-05,1.0,9.999999747378752e-05
0.4361103455286696,0.9382222294807434,2.7987067238427697e-05,1.0,9.999999747378752e-05
0.43601183112410297,0.9382222294807434,3.557975852163508e-05,1.0,9.999999747378752e-05
0.43590922242351937,0.9382222294807434,2.6683272473746912e-05,1.0,9.999999747378752e-05
0.4357747384701951,0.9382222294807434,2.6907338469754904e-05,1.0,9.999999747378752e-05
0.43583092400048673,0.9382222294807434,3.471872929367237e-05,1.0,9.999999747378752e-05
0.4357553518475373,0.9382222294807434,2.9014558451308404e-05,1.0,9.999999747378752e-05
0.43575145490907985,0.9382222294807434,1.9416043141973204e-05,1.0,9.999999747378752e-05
0.43585063768701526,0.9382222294807434,2.6973821397405118e-05,1.0,9.999999747378752e-05
0.43605240110502685,0.9377777576446533,4.9384225014364346e-05,1.0,9.999999747378752e-05
0.43605438695958904,0.9377777576446533,2.3578437423566356e-05,1.0,9.999999747378752e-05
0.43612777564205885,0.9377777576446533,4.213149327551946e-05,1.0,9.999999747378752e-05
0.4356143669944148,0.9377777576446533,5.745210983150173e-05,1.0,9.999999747378752e-05
0.4353076572942615,0.9382222294807434,2.4518202772014774e-05,1.0,9.999999747378752e-05
0.4351956523850054,0.9382222294807434,2.436190517619252e-05,1.0,9.999999747378752e-05
0.4352696409617129,0.9382222294807434,3.427203177125193e-05,1.0,9.999999747378752e-05
0.43552066330050326,0.9382222294807434,9.005267101747449e-05,1.0,9.999999747378752e-05
0.43577300875626274,0.9395555257797241,4.096193009172566e-05,1.0,9.999999747378752e-05
0.4358087610061759,0.9395555257797241,2.7452326961793005e-05,1.0,9.999999747378752e-05
0.43606001155790325,0.9395555257797241,6.777877942658961e-05,1.0,9.999999747378752e-05
0.4365154653644689,0.9391111135482788,3.239806042984128e-05,1.0,9.999999747378752e-05
0.4369040125664922,0.9391111135482788,2.8360276002786123e-05,1.0,9.999999747378752e-05
0.43706802893915137,0.9391111135482788,2.56310231925454e-05,1.0,9.999999747378752e-05
0.4371347986913954,0.9391111135482788,2.5173676200211047e-05,1.0,9.999999747378752e-05
0.43719156655245106,0.9391111135482788,2.7482662204420194e-05,1.0,9.999999747378752e-05
0.4368655403511471,0.9391111135482788,4.8908673576079306e-05,1.0,9.999999747378752e-05
0.4366378691914805,0.9377777576446533,3.7220486847218124e-05,1.0,9.999999747378752e-05
0.4364011856705005,0.9377777576446533,2.903050680470187e-05,1.0,9.999999747378752e-05
0.43635688580972704,0.9377777576446533,3.3934399580175524e-05,1.0,9.999999747378752e-05
0.4363782584790226,0.9377777576446533,2.202508272603154e-05,1.0,9.999999747378752e-05
0.4365203678002314,0.9377777576446533,3.2433707150630654e-05,1.0,9.999999747378752e-05
0.43649952879783976,0.9377777576446533,1.8849738538847305e-05,1.0,9.999999747378752e-05
0.43648121601909146,0.9377777576446533,2.6305972642148846e-05,1.0,9.999999747378752e-05
0.4364040178249132,0.9377777576446533,3.550250580155989e-05,1.0,9.999999747378752e-05
0.43601425348951955,0.9377777576446533,4.7525619724183344e-05,1.0,9.999999747378752e-05
0.4359894762426516,0.9377777576446533,6.262376275844871e-05,1.0,9.999999747378752e-05
0.43582166186838,0.9382222294807434,2.01823001698358e-05,1.0,9.999999747378752e-05
0.4354732546791775,0.9368888735771179,5.143914488871815e-05,1.0,9.999999747378752e-05
0.4348659005281968,0.9368888735771179,3.142081505211536e-05,1.0,9.999999747378752e-05
0.43476911629417736,0.9368888735771179,2.4639653449412435e-05,1.0,9.999999747378752e-05
0.43494442326348426,0.937333345413208,2.8866544205811807e-05,1.0,9.999999747378752e-05
0.4350559804293823,0.9382222294807434,1.959852161235176e-05,1.0,9.999999747378752e-05
0.43535282443505763,0.9382222294807434,2.5716788455611095e-05,1.0,9.999999747378752e-05
0.4358142689587411,0.9382222294807434,2.922309019777458e-05,1.0,9.999999747378752e-05
0.43616155127575457,0.9377777576446533,3.765097903669812e-05,1.0,9.999999747378752e-05
0.4363634360886305,0.9377777576446533,3.0119348841253668e-05,1.0,9.999999747378752e-05
0.43660648508773336,0.9377777576446533,2.698964494629763e-05,1.0,9.999999747378752e-05
0.43674066786544263,0.9377777576446533,1.790232365601696e-05,1.0,9.999999747378752e-05
0.4368368124357148,0.9377777576446533,2.088037224166328e-05,1.0,9.999999747378752e-05
0.4369655403684883,0.9377777576446533,1.7791234626201913e-05,1.0,9.999999747378752e-05
0.43712791522261735,0.9377777576446533,2.0363994350191207e-05,1.0,9.999999747378752e-05
0.43733821178726306,0.9377777576446533,3.140371153131127e-05,1.0,9.999999747378752e-05
0.437252905156043,0.9377777576446533,3.5543967831472403e-05,1.0,9.999999747378752e-05
0.4372339873835307,0.9377777576446533,4.5011486930889076e-05,1.0,9.999999747378752e-05
0.43734784444752184,0.9377777576446533,2.8229648094566075e-05,1.0,9.999999747378752e-05
0.4373395253544327,0.9377777576446533,1.9146470847772436e-05,1.0,9.999999747378752e-05
0.43751071955020276,0.9377777576446533,4.21952499600593e-05,1.0,9.999999747378752e-05
0.43735431549865783,0.9377777576446533,3.528032987378538e-05,1.0,9.999999747378752e-05
0.4371577731428681,0.9377777576446533,2.931021712720394e-05,1.0,9.999999747378752e-05
0.4371117017856183,0.9382222294807434,2.2150489246996587e-05,1.0,9.999999747378752e-05
0.43731183299661563,0.9382222294807434,2.9079578147502617e-05,1.0,9.999999747378752e-05
0.43749865952372946,0.9382222294807434,3.928724565776065e-05,1.0,9.999999747378752e-05
0.43745700657941455,0.9377777576446533,2.048416854086099e-05,1.0,9.999999747378752e-05
0.4375007842704193,0.9377777576446533,1.9289533112896606e-05,1.0,9.999999747378752e-05
0.43751027285304817,0.9377777576446533,2.9168773122364653e-05,1.0,9.999999747378752e-05
0.4376150459175171,0.9377777576446533,4.6626042196294294e-05,1.0,9.999999747378752e-05
0.4376070354241456,0.9377777576446533,2.6105536438990384e-05,1.0,9.999999747378752e-05
0.43785380613722213,0.9382222294807434,2.5815193192102015e-05,1.0,9.999999747378752e-05
0.4377892992157285,0.9386666417121887,2.8832522279117257e-05,1.0,9.999999747378752e-05
0.4380156023759353,0.9386666417121887,2.593826993688708e-05,1.0,9.999999747378752e-05
0.43830359403217317,0.9386666417121887,2.833115716202883e-05,1.0,9.999999747378752e-05
0.43824314708099377,0.9382222294807434,4.3975895532639694e-05,1.0,9.999999747378752e-05
0.4383921054990529,0.9382222294807434,4.1300590120954436e-05,1.0,9.999999747378752e-05
0.4385312205014456,0.9368888735771179,3.744080946489703e-05,1.0,9.999999747378752e-05
0.4389244341841792,0.9364444613456726,3.219914471264929e-05,1.0,9.999999747378752e-05
0.4390670457142518,0.9364444613456726,1.8000033538555726e-05,1.0,9.999999747378752e-05
0.4390956613876737,0.937333345413208,2.552469119837042e-05,1.0,9.999999747378752e-05
0.43921621433815744,0.9377777576446533,2.8744157258188352e-05,1.0,9.999999747378752e-05
0.4392419311860568,0.9377777576446533,1.8036943904007786e-05,1.0,9.999999747378752e-05
0.4392817982825816,0.9377777576446533,2.0709413103759287e-05,1.0,9.999999747378752e-05
0.4395354185098016,0.9377777576446533,3.2520638487767425e-05,1.0,9.999999747378752e-05
0.43971656786011265,0.9382222294807434,3.010910184821114e-05,1.0,9.999999747378752e-05
0.4400579458734137,0.9382222294807434,2.7465303777717054e-05,1.0,9.999999747378752e-05
0.44019927793685604,0.9382222294807434,3.706435800268082e-05,1.0,9.999999747378752e-05
0.44025411648829726,0.9382222294807434,1.7977554954995868e-05,1.0,9.999999747378752e-05
0.4403903454735806,0.9382222294807434,2.4202905653510244e-05,1.0,9.999999747378752e-05
0.4403898355889703,0.9382222294807434,1.760417118202895e-05,1.0,9.999999747378752e-05
0.4404434144028451,0.9382222294807434,1.9027284331968986e-05,1.0,9.999999747378752e-05
0.4405071604379482,0.9382222294807434,3.5391384502872826e-05,1.0,9.999999747378752e-05
0.44042669482978897,0.9382222294807434,1.6545903927180918e-05,1.0,9.999999747378752e-05
0.44049464495930846,0.9382222294807434,2.4444423062959687e-05,1.0,9.999999747378752e-05
0.4401913054977914,0.9382222294807434,4.4546371544129213e-05,1.0,9.999999747378752e-05
0.439877918216412,0.9382222294807434,3.2860541105037554e-05,1.0,9.999999747378752e-05
0.43977608523714135,0.9382222294807434,1.7956474956008607e-05,1.0,9.999999747378752e-05
0.4397928522488768,0.9382222294807434,2.0395497645949945e-05,1.0,9.999999747378752e-05
0.43993726318357623,0.9382222294807434,2.420148292731028e-05,1.0,9.999999747378752e-05
0.4398842125264281,0.9382222294807434,3.9792718656826764e-05,1.0,9.999999747378752e-05
0.4396616414778158,0.9364444613456726,5.563957219419535e-05,1.0,9.999999747378752e-05
0.4398624375123877,0.9368888735771179,3.306834575778339e-05,1.0,9.999999747378752e-05
0.44000749875368556,0.9364444613456726,2.2430156037444247e-05,1.0,9.999999747378752e-05
0.44010919626487155,0.9364444613456726,2.1296164792147465e-05,1.0,9.999999747378752e-05
0.4402575486892286,0.9368888735771179,1.9515672320267186e-05,1.0,9.999999747378752e-05
0.44045756102872596,0.9377777576446533,2.121848396200221e-05,1.0,9.999999747378752e-05
0.44070034647582523,0.9377777576446533,9.129551472142339e-05,1.0,9.999999747378752e-05
0.4410874798090218,0.937333345413208,2.7293540588289032e-05,1.0,9.999999747378752e-05
0.44134894145094666,0.9364444613456726,2.7099405182525514e-05,1.0,9.999999747378752e-05
0.44172668409247773,0.9368888735771179,2.7904893955565056e-05,1.0,9.999999747378752e-05
0.4420171556727647,0.9368888735771179,4.293546294502448e-05,1.0,9.999999747378752e-05
0.44212668628062884,0.9364444613456726,1.7734663852024824e-05,1.0,9.999999747378752e-05
0.4423821689675493,0.9364444613456726,3.4181998897111046e-05,1.0,9.999999747378752e-05
0.4428291046343899,0.9359999895095825,3.1305259835789914e-05,1.0,9.999999747378752e-05
0.4432515434678507,0.9359999895095825,2.4501891239196994e-05,1.0,9.999999747378752e-05
0.4428313311460192,0.9364444613456726,7.983128042542376e-05,1.0,9.999999747378752e-05
0.44261294198602347,0.9359999895095825,1.5851706819375976e-05,1.0,9.999999747378752e-05
0.44266554694622107,0.9368888735771179,3.937083808705211e-05,1.0,9.999999747378752e-05
0.44302044530638035,0.9368888735771179,3.3911257589352315e-05,1.0,9.999999747378752e-05
0.4431061988400599,0.9377777576446533,3.33633337286301e-05,1.0,9.999999747378752e-05
0.4432640043160524,0.9377777576446533,2.941673985333182e-05,1.0,9.999999747378752e-05
0.4430108010896058,0.9377777576446533,2.0579377029207534e-05,1.0,9.999999747378752e-05
0.4429816264637225,0.9377777576446533,2.2263205304625443e-05,1.0,9.999999747378752e-05
0.4429405906592284,0.9377777576446533,6.239488915889523e-05,1.0,9.999999747378752e-05
0.44267672682410597,0.9368888735771179,7.783109523006715e-05,1.0,9.999999747378752e-05
0.4424223379684279,0.9359999895095825,4.255938142887316e-05,1.0,9.999999747378752e-05
0.4424592040769559,0.9359999895095825,2.444399209343828e-05,1.0,9.999999747378752e-05
0.4423170537278274,0.9355555772781372,3.155735901964363e-05,1.0,9.999999747378752e-05
0.44260204374712336,0.9359999895095825,2.954139476059936e-05,1.0,9.999999747378752e-05
0.44277104842589565,0.9359999895095825,1.7542203480843455e-05,1.0,9.999999747378752e-05
0.44314274166621986,0.9359999895095825,1.9842445704853163e-05,1.0,9.999999747378752e-05
0.4431877023505173,0.9359999895095825,2.2019733303750398e-05,1.0,9.999999747378752e-05
0.4434312118550887,0.9364444613456726,3.777207637904212e-05,1.0,9.999999747378752e-05
0.4436758929882732,0.9368888735771179,2.2493459284305574e-05,1.0,9.999999747378752e-05
0.4437829851502522,0.937333345413208,1.6939477507548874e-05,1.0,9.999999747378752e-05
0.44396178306420514,0.937333345413208,1.8725551228271796e-05,1.0,9.999999747378752e-05
0.4440221535558424,0.937333345413208,1.441416634770576e-05,1.0,9.999999747378752e-05
0.4439800291454028,0.937333345413208,2.1452998800668865e-05,1.0,9.999999747378752e-05
0.4442030840180556,0.937333345413208,2.1276461498928256e-05,1.0,9.999999747378752e-05
0.4445508475432305,0.937333345413208,2.4432989841443487e-05,1.0,9.999999747378752e-05
0.4446903450750316,0.937333345413208,2.429403190035373e-05,1.0,9.999999747378752e-05
0.4450515288309648,0.937333345413208,1.3622333259263541e-05,1.0,9.999999747378752e-05
0.44676318271232596,0.9377777576446533,5.588800601253752e-05,1.0,9.999999747378752e-05
0.4477633100409326,0.9377777576446533,1.790123819228029e-05,1.0,9.999999747378752e-05
0.44821995609916,0.9377777576446533,3.519443990080617e-05,1.0,9.999999747378752e-05
0.44850285547228447,0.9377777576446533,2.2302843222860247e-05,1.0,9.999999747378752e-05
0.44850603267150696,0.9377777576446533,3.079547897505108e-05,1.0,9.999999747378752e-05
0.44825507658659386,0.9377777576446533,1.973187025578227e-05,1.0,9.999999747378752e-05
0.4483624546720902,0.9377777576446533,3.106755189219257e-05,1.0,9.999999747378752e-05
0.4482348634661515,0.9377777576446533,2.2471897522336805e-05,1.0,9.999999747378752e-05
0.4483009145387259,0.9368888735771179,2.811514314089436e-05,1.0,9.999999747378752e-05
0.44817137733384316,0.9368888735771179,1.9884108725818806e-05,1.0,9.999999747378752e-05
0.4480391508203813,0.937333345413208,3.909658703196328e-05,1.0,9.999999747378752e-05
0.44722891437635637,0.9377777576446533,3.7506081629544497e-05,1.0,9.999999747378752e-05
0.4458350775072508,0.9377777576446533,2.6143162467633375e-05,1.0,9.999999747378752e-05
0.4448076795170281,0.9386666417121887,2.3746181221213192e-05,1.0,9.999999747378752e-05
0.4441498252845025,0.9386666417121887,2.152605810260866e-05,1.0,9.999999747378752e-05
0.4438313370641214,0.9386666417121887,1.7391320907336193e-05,1.0,9.999999747378752e-05
0.4437538828316319,0.9386666417121887,2.357339538866654e-05,1.0,9.999999747378752e-05
0.4435479423267712,0.9386666417121887,1.705579209374264e-05,1.0,9.999999747378752e-05
0.44345476248825433,0.9382222294807434,1.7821977991843597e-05,1.0,9.999999747378752e-05
0.44339959272706375,0.9382222294807434,1.9155041678459385e-05,1.0,9.999999747378752e-05
0.4437435361209662,0.9382222294807434,3.469616640359163e-05,1.0,9.999999747378752e-05
0.4435116302797849,0.9382222294807434,1.343394408468157e-05,1.0,9.999999747378752e-05
0.4431354877514289,0.9382222294807434,2.2649673963314854e-05,1.0,9.999999747378752e-05
0.4428322028877689,0.9382222294807434,1.7878598388051614e-05,1.0,9.999999747378752e-05
0.44300769581351296,0.9382222294807434,2.4696378357475625e-05,1.0,9.999999747378752e-05
0.44429782380609684,0.9377777576446533,9.706752984493505e-05,1.0,9.999999747378752e-05
0.4448640683619354,0.937333345413208,3.2697668259061174e-05,1.0,9.999999747378752e-05
0.4450910346304437,0.9368888735771179,1.4208398279151879e-05,1.0,9.999999747378752e-05
0.44506803779422865,0.937333345413208,1.9105388812022283e-05,1.0,9.999999747378752e-05
0.4448620929647069,0.9368888735771179,3.3413533616112546e-05,1.0,9.999999747378752e-05
0.44493950497394447,0.9364444613456726,1.5162082469032612e-05,1.0,9.999999747378752e-05
0.4449618702195132,0.9364444613456726,1.6848613624460995e-05,1.0,9.999999747378752e-05
0.44522348233680853,0.9364444613456726,2.454194167512469e-05,1.0,9.999999747378752e-05
0.44528247584194547,0.9377777576446533,2.2522994040627964e-05,1.0,9.999999747378752e-05
0.44508170719236095,0.9377777576446533,2.0432056931895203e-05,1.0,9.999999747378752e-05
0.44497698422888143,0.9368888735771179,2.552831682987744e-05,1.0,9.999999747378752e-05
0.4450267442658466,0.9359999895095825,2.199885954905767e-05,1.0,9.999999747378752e-05
0.44517490136573745,0.9368888735771179,2.204418196924962e-05,1.0,9.999999747378752e-05
0.4448887737851724,0.9368888735771179,1.924767986565712e-05,1.0,9.999999747378752e-05
0.44493531715816786,0.937333345413208,2.166456556005869e-05,1.0,9.999999747378752e-05
0.4450512042967716,0.937333345413208,2.4248651694506406e-05,1.0,9.999999747378752e-05
0.4450053333568358,0.937333345413208,1.652135667245602e-05,1.0,9.999999747378752e-05
0.4452054907806289,0.937333345413208,1.5167410056164954e-05,1.0,9.999999747378752e-05
0.4452186062594847,0.937333345413208,2.917109034751775e-05,1.0,9.999999747378752e-05
0.4453301532262679,0.937333345413208,1.8010652856901287e-05,1.0,9.999999747378752e-05
0.44541294632960005,0.937333345413208,1.9982062658527865e-05,1.0,9.999999747378752e-05
0.4456869590939427,0.937333345413208,2.7958711521932856e-05,1.0,9.999999747378752e-05
0.4457965919105473,0.937333345413208,1.7554437668877653e-05,1.0,9.999999747378752e-05
0.44592475968553563,0.937333345413208,1.937051121785771e-05,1.0,9.999999747378752e-05
0.4462253193321012,0.937333345413208,2.1291535755153745e-05,1.0,9.999999747378752e-05
0.44658453473737286,0.937333345413208,2.5696703989524393e-05,1.0,9.999999747378752e-05
0.4469407263460396,0.9377777576446533,1.937424944480881e-05,1.0,9.999999747378752e-05
0.44624864374557605,0.9377777576446533,2.7745943109039218e-05,1.0,9.999999747378752e-05
0.44570207573600296,0.9382222294807434,1.2283247742743698e-05,1.0,9.999999747378752e-05
0.4438475492526696,0.9382222294807434,2.1571095705439803e-05,1.0,9.999999747378752e-05
0.44330856668913393,0.9377777576446533,1.8379528853984085e-05,1.0,9.999999747378752e-05
0.4432493790152835,0.9386666417121887,2.7496703885844907e-05,1.0,9.999999747378752e-05
0.4431133589542409,0.9391111135482788,1.3369856096687727e-05,1.0,9.999999747378752e-05
0.443209576483883,0.9391111135482788,1.3573236035881563e-05,1.0,9.999999747378752e-05
0.4436053595870253,0.9382222294807434,3.362313070101663e-05,1.0,9.999999747378752e-05
0.44418686992541107,0.9382222294807434,2.6453338141436688e-05,1.0,9.999999747378752e-05
0.4448297642728624,0.9377777576446533,2.3056670266669245e-05,1.0,9.999999747378752e-05
0.4444201827641009,0.9382222294807434,0.00010591122157347854,1.0,9.999999747378752e-05
0.44326414467197983,0.9395555257797241,3.457792266272008e-05,1.0,9.999999747378752e-05
0.4428153654946982,0.9399999976158142,1.631262368755415e-05,1.0,9.999999747378752e-05
0.44243307935669224,0.9395555257797241,1.8557146278908476e-05,1.0,9.999999747378752e-05
0.4420928880238522,0.9395555257797241,2.340847578307148e-05,1.0,9.999999747378752e-05
0.442280816819649,0.9395555257797241,3.635137574747205e-05,1.0,9.999999747378752e-05
0.4426414098504287,0.9395555257797241,1.746294395707082e-05,1.0,9.999999747378752e-05
0.44324176063103854,0.9395555257797241,2.3300281012780032e-05,1.0,9.999999747378752e-05
0.44394829317228707,0.9395555257797241,1.65952252864372e-05,1.0,9.999999747378752e-05
0.44410414915577306,0.9391111135482788,1.4157828249153681e-05,1.0,9.999999747378752e-05
0.44423178859846507,0.9391111135482788,1.1833743112219964e-05,1.0,9.999999747378752e-05
0.44441327859260127,0.9391111135482788,9.670539991930127e-06,1.0,9.999999747378752e-05
0.44478859229186735,0.9391111135482788,3.194978073588573e-05,1.0,9.999999747378752e-05
0.4446734831296659,0.9391111135482788,1.8348776546190494e-05,1.0,9.999999747378752e-05
0.44463103900981515,0.9391111135482788,1.1933141766348854e-05,1.0,9.999999747378752e-05
0.4445884500870763,0.9386666417121887,1.93616617762018e-05,1.0,9.999999747378752e-05
0.44506020754209263,0.9382222294807434,1.6281490679830313e-05,1.0,9.999999747378752e-05
0.44502758867175485,0.9382222294807434,4.306021077354671e-05,1.0,9.999999747378752e-05
0.4445776091313423,0.9382222294807434,2.3518634581705557e-05,1.0,9.999999747378752e-05
0.4449864492843339,0.9382222294807434,6.14503506658366e-05,1.0,9.999999747378752e-05
0.4459643282523264,0.9382222294807434,1.9951122714701342e-05,1.0,9.999999747378752e-05
0.4465043841233738,0.9377777576446533,1.7411357119271997e-05,1.0,9.999999747378752e-05
0.44694022423667895,0.9377777576446533,2.422659151488915e-05,1.0,9.999999747378752e-05
0.44709024220682353,0.9377777576446533,1.1972340518696e-05,1.0,9.999999747378752e-05
0.4473345862293637,0.9377777576446533,1.7687511455733327e-05,1.0,9.999999747378752e-05
0.447604998515469,0.9377777576446533,1.2063413654686884e-05,1.0,9.999999747378752e-05
0.4480743705031871,0.9377777576446533,1.611425366718322e-05,1.0,9.999999747378752e-05
0.44841934794166244,0.9377777576446533,2.883536016452126e-05,1.0,9.999999747378752e-05
0.4483779261242562,0.9377777576446533,1.3211316276283469e-05,1.0,9.999999747378752e-05
0.4471263355047562,0.9377777576446533,3.172068372077774e-05,1.0,9.999999747378752e-05
0.4466476156676112,0.9377777576446533,1.7375131759763462e-05,1.0,9.999999747378752e-05
0.44651160430221676,0.9377777576446533,1.2330871235462837e-05,1.0,9.999999747378752e-05
0.44689157304473703,0.9377777576446533,1.7427806757041252e-05,1.0,9.999999747378752e-05
0.4468737916413908,0.9382222294807434,2.2666836048301776e-05,1.0,9.999999747378752e-05
0.4471218678551013,0.9382222294807434,2.564221792999888e-05,1.0,9.999999747378752e-05
0.4474995902442643,0.9382222294807434,2.9632253310410306e-05,1.0,9.999999747378752e-05
0.4475206958847286,0.9382222294807434,1.552993401128333e-05,1.0,9.999999747378752e-05
0.4474113428622784,0.9382222294807434,1.56167633831501e-05,1.0,9.999999747378752e-05
0.44734785423643836,0.9382222294807434,2.0007516839541495e-05,1.0,9.999999747378752e-05
0.44759040007622913,0.9377777576446533,1.5506738061958457e-05,1.0,9.999999747378752e-05
0.44775349638161666,0.9377777576446533,1.9865859649144113e-05,1.0,9.999999747378752e-05
0.447107166538323,0.9382222294807434,2.974336141778622e-05,1.0,9.999999747378752e-05
0.4464868182636702,0.9386666417121887,2.1041598549345508e-05,1.0,9.999999747378752e-05
0.4457760170927464,0.9395555257797241,1.587620248028543e-05,1.0,9.999999747378752e-05
0.44579373412638074,0.9395555257797241,2.3091682054655392e-05,1.0,9.999999747378752e-05
0.44614889172357897,0.9391111135482788,1.8384691298706456e-05,1.0,9.999999747378752e-05
0.44643307024545476,0.9391111135482788,9.222536478773692e-06,1.0,9.999999747378752e-05
0.4469167899950286,0.9391111135482788,1.620436906159739e-05,1.0,9.999999747378752e-05
0.4474971519937624,0.9386666417121887,1.2410570838255808e-05,1.0,9.999999747378752e-05
0.44840128794618106,0.9382222294807434,4.186454025330022e-05,1.0,9.999999747378752e-05
0.44963611300765355,0.9382222294807434,2.7967109490418805e-05,1.0,9.999999747378752e-05
0.4500941130715651,0.9382222294807434,1.171836281719152e-05,1.0,9.999999747378752e-05
0.4505079095891435,0.9382222294807434,1.7663010017713533e-05,1.0,9.999999747378752e-05
0.4508708948424703,0.9382222294807434,1.5081949983141385e-05,1.0,9.999999747378752e-05
0.451129632310521,0.9382222294807434,9.858562712906859e-06,1.0,9.999999747378752e-05
0.4500583019783783,0.9395555257797241,0.00017530774045735597,1.0,9.999999747378752e-05
0.4520779499087641,0.9444444179534912,2.4522917665308342e-05,1.0,9.999999747378752e-05
0.4542545451367316,0.9457777738571167,1.4742064246092923e-05,1.0,9.999999747378752e-05
0.4496548377854536,0.9453333616256714,3.350802517525153e-05,1.0,9.999999747378752e-05
0.44501520497547686,0.9444444179534912,2.1142350968148094e-05,1.0,9.999999747378752e-05
0.440488081307477,0.9426666498184204,4.9646305364149154e-05,1.0,9.999999747378752e-05
0.4382537211703602,0.9408888816833496,1.2751748807204421e-05,1.0,9.999999747378752e-05
0.43838162462038355,0.9399999976158142,2.2715150407748297e-05,1.0,9.999999747378752e-05
0.4393735798894082,0.9391111135482788,1.1137024383060634e-05,1.0,9.999999747378752e-05
0.44011163689248173,0.9386666417121887,2.525854603300104e-05,1.0,9.999999747378752e-05
0.44133907676118217,0.9377777576446533,2.146995956718456e-05,1.0,9.999999747378752e-05
0.4424463410093514,0.937333345413208,3.080761048477143e-05,1.0,9.999999747378752e-05
0.44382551981850704,0.937333345413208,1.8002203687501607e-05,1.0,9.999999747378752e-05
0.44512711853325565,0.9359999895095825,1.6964642905804794e-05,1.0,9.999999747378752e-05
0.4461686014588906,0.9355555772781372,1.340337203873787e-05,1.0,9.999999747378752e-05
0.4475092917405984,0.9351111054420471,1.733041335683083e-05,1.0,9.999999747378752e-05
0.4484020488915727,0.9351111054420471,1.1683132404868956e-05,1.0,9.999999747378752e-05
0.44720759907635266,0.9355555772781372,4.312817048048601e-05,1.0,9.999999747378752e-05
0.44729438059143367,0.9355555772781372,2.754528167861281e-05,1.0,9.999999747378752e-05
0.44747304227567736,0.9355555772781372,9.268791996873915e-06,1.0,9.999999747378752e-05
0.44838729051711806,0.9355555772781372,7.333949889289215e-05,1.0,9.999999747378752e-05
0.45576946216141573,0.93022221326828,4.95886483695358e-05,1.0,9.999999747378752e-05
0.45894412951984564,0.9293333292007446,1.7518627100798766e-05,1.0,9.999999747378752e-05
0.4596318187712334,0.9297778010368347,1.534963704762049e-05,1.0,9.999999747378752e-05
0.4606676774023573,0.9297778010368347,3.3767871296731755e-05,1.0,9.999999747378752e-05
0.45990010295959977,0.9297778010368347,2.0626131088647524e-05,1.0,9.999999747378752e-05
0.45904937831546827,0.9311110973358154,1.0124709173396695e-05,1.0,9.999999747378752e-05
0.45866313476019505,0.9319999814033508,1.5384913225716447e-05,1.0,9.999999747378752e-05
0.45812162213842506,0.9324444532394409,1.4408746195840649e-05,1.0,9.999999747378752e-05
0.4574647861850313,0.9333333373069763,1.2498820939072175e-05,1.0,9.999999747378752e-05
0.45668904676689714,0.9333333373069763,1.562576687138062e-05,1.0,9.999999747378752e-05
0.4563099015817465,0.9337777495384216,9.12030584004242e-06,1.0,9.999999747378752e-05
0.45632480835902606,0.9337777495384216,2.492004081432242e-05,1.0,9.999999747378752e-05
0.4565138063959465,0.9346666932106018,1.824340777238831e-05,1.0,9.999999747378752e-05
0.44986073406522536,0.9386666417121887,0.00014524108286423143,1.0,9.999999747378752e-05
0.4476236552561321,0.9395555257797241,1.4885839962516912e-05,1.0,9.999999747378752e-05
0.44607551496871667,0.9404444694519043,9.804489985981491e-06,1.0,9.999999747378752e-05
0.4451377511701374,0.9404444694519043,1.3384806254180148e-05,1.0,9.999999747378752e-05
0.44430211139696946,0.9395555257797241,2.5983632265706545e-05,1.0,9.999999747378752e-05
0.4443459031876935,0.9391111135482788,1.6742653053370306e-05,1.0,9.999999747378752e-05
0.4448538540466034,0.9377777576446533,1.3146168861567276e-05,1.0,9.999999747378752e-05
0.44541488099397286,0.937333345413208,1.0535353561863304e-05,1.0,9.999999747378752e-05
0.44610585144131537,0.937333345413208,1.3590038288384675e-05,1.0,9.999999747378752e-05
0.44688384037186796,0.9377777576446533,9.314721221016952e-06,1.0,9.999999747378752e-05
0.44786709711589434,0.9377777576446533,4.4399239675840365e-05,1.0,9.999999747378752e-05
0.4488478593890003,0.9382222294807434,2.284206687909318e-05,1.0,9.999999747378752e-05
0.4496961190366949,0.9382222294807434,1.5943721824442035e-05,1.0,9.999999747378752e-05
0.4505198490882451,0.9368888735771179,5.186424939893186e-05,1.0,9.999999747378752e-05
0.4511968580913413,0.9368888735771179,1.3576183911936824e-05,1.0,9.999999747378752e-05
0.4520473725794416,0.9368888735771179,1.5900422848062588e-05,1.0,9.999999747378752e-05
0.45252239481926354,0.9364444613456726,1.420438857167028e-05,1.0,9.999999747378752e-05
0.45281416418472425,0.9364444613456726,2.126431604847312e-05,1.0,9.999999747378752e-05
0.4526720229518044,0.9364444613456726,2.075965152471326e-05,1.0,9.999999747378752e-05
0.4529076598847686,0.9368888735771179,9.710107602586504e-06,1.0,9.999999747378752e-05
0.45254574369701933,0.937333345413208,2.537372219376266e-05,1.0,9.999999747378752e-05
0.452741642580866,0.937333345413208,2.4307281681103633e-05,1.0,9.999999747378752e-05
0.45318924494230384,0.937333345413208,1.9061302380578126e-05,1.0,9.999999747378752e-05
0.45358340973631533,0.937333345413208,7.078075952449581e-06,1.0,9.999999747378752e-05
0.45377923908144496,0.9377777576446533,9.166546667984221e-06,1.0,9.999999747378752e-05
0.4541480618481429,0.9377777576446533,1.3149804592103464e-05,1.0,9.999999747378752e-05
0.45500486128511974,0.937333345413208,2.874778551631607e-05,1.0,9.999999747378752e-05
0.4553612669042462,0.937333345413208,1.5001632702478673e-05,1.0,9.999999747378752e-05
0.45541934088186464,0.9377777576446533,2.9543193290010094e-05,1.0,9.999999747378752e-05
0.4550020433959269,0.9359999895095825,2.5491997977951543e-05,1.0,9.999999747378752e-05
0.45510530062147925,0.9359999895095825,1.1398760048905388e-05,1.0,9.999999747378752e-05
0.45559606310025064,0.9359999895095825,1.4189594920026138e-05,1.0,9.999999747378752e-05
0.45608956362437636,0.9359999895095825,1.4362616529979278e-05,1.0,9.999999747378752e-05
0.45663028877938994,0.9359999895095825,1.2088284944184125e-05,1.0,9.999999747378752e-05
0.45716073289479636,0.9359999895095825,1.4520141798129772e-05,1.0,9.999999747378752e-05
0.45709778360496905,0.9359999895095825,1.3912795649957843e-05,1.0,9.999999747378752e-05
0.45749202891827334,0.9364444613456726,1.858665535110049e-05,1.0,9.999999747378752e-05
0.45770563990850216,0.9382222294807434,1.2904042290756479e-05,1.0,9.999999747378752e-05
0.45790702129716737,0.9382222294807434,8.560723887057975e-06,1.0,9.999999747378752e-05
0.45817697337253693,0.9377777576446533,1.5265809604898096e-05,1.0,9.999999747378752e-05
0.458803836166718,0.9382222294807434,1.1377312570402864e-05,1.0,9.999999747378752e-05
0.459155558686984,0.9377777576446533,1.0574966530839448e-05,1.0,9.999999747378752e-05
0.4587673327607,0.9377777576446533,3.070074628340081e-05,1.0,9.999999747378752e-05
0.45640949756883575,0.9377777576446533,1.3934035872807726e-05,1.0,9.999999747378752e-05
0.45583663140548947,0.937333345413208,9.535061166388914e-06,1.0,9.999999747378752e-05
0.4557233513873119,0.937333345413208,6.565252882865024e-06,1.0,9.999999747378752e-05
0.45613768914651803,0.937333345413208,1.4537904622557108e-05,1.0,9.999999747378752e-05
0.45660321164275913,0.937333345413208,2.0599173672962934e-05,1.0,9.999999747378752e-05
0.45609169860646986,0.937333345413208,2.7851671373355203e-05,1.0,9.999999747378752e-05
0.45617271000769444,0.9368888735771179,8.942892120103351e-06,1.0,9.999999747378752e-05
0.4566149872173337,0.9368888735771179,1.0621567529597087e-05,1.0,9.999999747378752e-05
0.45741672421132007,0.937333345413208,1.2254011420736788e-05,1.0,9.999999747378752e-05
0.45809213579501656,0.937333345413208,1.0926640366960783e-05,1.0,9.999999747378752e-05
0.45862369774092887,0.937333345413208,6.933583004865795e-06,1.0,9.999999747378752e-05
0.45884233488284454,0.937333345413208,2.9698834929149597e-05,1.0,9.999999747378752e-05
0.4586273586051737,0.9377777576446533,1.1290678463410585e-05,1.0,9.999999747378752e-05
0.4587911901934838,0.9368888735771179,1.1051080477045615e-05,1.0,9.999999747378752e-05
0.45891679540251384,0.937333345413208,1.0350315802497789e-05,1.0,9.999999747378752e-05
0.4595104682708265,0.9382222294807434,1.178815339881112e-05,1.0,9.999999747378752e-05
0.45989108127666867,0.9382222294807434,7.169827276811702e-06,1.0,9.999999747378752e-05
0.46021635755878376,0.9382222294807434,9.366046364448266e-06,1.0,9.999999747378752e-05
0.46057672036007674,0.9382222294807434,1.1993467873253394e-05,1.0,9.999999747378752e-05
0.46126178249038197,0.9377777576446533,1.6046496661147103e-05,1.0,9.999999747378752e-05
0.46192376033117355,0.9377777576446533,1.9167234495398588e-05,1.0,9.999999747378752e-05
0.4621505811014172,0.937333345413208,9.620238888601306e-06,1.0,9.999999747378752e-05
0.4625472219121301,0.9382222294807434,1.7579518433194607e-05,1.0,9.999999747378752e-05
0.462717223410664,0.9377777576446533,1.6484537540236488e-05,1.0,9.999999747378752e-05
0.46300589455154556,0.9368888735771179,1.0757664054835914e-05,1.0,9.999999747378752e-05
0.4632952903805789,0.9364444613456726,1.3004448213905562e-05,1.0,9.999999747378752e-05
0.46345035025133013,0.9368888735771179,8.849153597111581e-06,1.0,9.999999747378752e-05
0.4631328840883386,0.937333345413208,2.4497333215549587e-05,1.0,9.999999747378752e-05
0.46302425023895477,0.9355555772781372,1.0964352521114051e-05,1.0,9.999999747378752e-05
0.46320939787542376,0.9346666932106018,9.736557160067606e-06,1.0,9.999999747378752e-05
0.46312928155710564,0.9346666932106018,8.415139942371752e-06,1.0,9.999999747378752e-05
0.46275941611645494,0.9351111054420471,1.2491778576077195e-05,1.0,9.999999747378752e-05
0.46262407438939207,0.9359999895095825,9.264951178920455e-06,1.0,9.999999747378752e-05
0.46249879114813663,0.9364444613456726,7.476975923054852e-06,1.0,9.999999747378752e-05
0.46211820329879144,0.937333345413208,9.805361623875796e-06,1.0,9.999999747378752e-05
0.4621668761172732,0.937333345413208,1.5186893520876766e-05,1.0,9.999999747378752e-05
0.46158396725832546,0.9355555772781372,3.35163924319204e-05,1.0,9.999999747378752e-05
0.46259471753543685,0.9342222213745117,1.0013293431256898e-05,1.0,9.999999747378752e-05
0.4629823189044073,0.9342222213745117,1.937676250236109e-05,1.0,9.999999747378752e-05
0.4607376752692043,0.9346666932106018,1.044317717605736e-05,1.0,9.999999747378752e-05
0.46000151108350795,0.9346666932106018,1.3243283101473935e-05,1.0,9.999999747378752e-05
0.4599062243002995,0.9359999895095825,9.978222391509916e-06,1.0,9.999999747378752e-05
0.4602429655656427,0.9368888735771179,8.576003165217116e-06,1.0,9.999999747378752e-05
0.46071274451070915,0.9368888735771179,8.758261377806775e-06,1.0,9.999999747378752e-05
0.4612209668489534,0.9364444613456726,9.443948671105318e-06,1.0,9.999999747378752e-05
0.4621252927679715,0.9364444613456726,1.489966998633463e-05,1.0,9.999999747378752e-05
0.46293872523462576,0.9368888735771179,1.579331355242175e-05,1.0,9.999999747378752e-05
0.4635585724710383,0.937333345413208,1.8504621839383616e-05,1.0,9.999999747378752e-05
0.4635503615388261,0.9382222294807434,1.4739013655344024e-05,1.0,9.999999747378752e-05
0.4633493131911499,0.9382222294807434,1.022749987714633e-05,1.0,9.999999747378752e-05
0.46313194179857237,0.937333345413208,1.8977391096996143e-05,1.0,9.999999747378752e-05
0.46205443979460525,0.9377777576446533,1.1856915371026844e-05,1.0,9.999999747378752e-05
0.4607751641968096,0.9382222294807434,1.1210981727344915e-05,1.0,9.999999747378752e-05
0.46024363243571537,0.9382222294807434,1.1865904831211082e-05,1.0,9.999999747378752e-05
0.4595164373201559,0.9382222294807434,1.713916910375701e-05,1.0,9.999999747378752e-05
0.45998990895838143,0.9391111135482788,2.646940344857285e-05,1.0,9.999999747378752e-05
0.4604620670675152,0.9391111135482788,2.516706584719941e-05,1.0,9.999999747378752e-05
0.46049646052203874,0.9382222294807434,2.0693203827249817e-05,1.0,9.999999747378752e-05
0.46075072615653173,0.9386666417121887,1.014353228674736e-05,1.0,9.999999747378752e-05
0.46126335329786766,0.937333345413208,2.0282966070226393e-05,1.0,9.999999747378752e-05
0.4618721497189334,0.9368888735771179,9.035356244567083e-06,1.0,9.999999747378752e-05
0.46229709740132524,0.9368888735771179,1.34806497808313e-05,1.0,9.999999747378752e-05
0.4624867173945135,0.9368888735771179,7.570619927719235e-06,1.0,9.999999747378752e-05
0.46219685610950706,0.9368888735771179,1.2752238431858132e-05,1.0,9.999999747378752e-05
0.4623686772335382,0.9368888735771179,1.124117361905519e-05,1.0,9.999999747378752e-05
0.46295926386272024,0.937333345413208,9.783543981029653e-06,1.0,9.999999747378752e-05
0.4635116471465044,0.937333345413208,1.1729035089956596e-05,1.0,9.999999747378752e-05
0.46543652226347654,0.937333345413208,1.8176486828451744e-05,1.0,9.999999747378752e-05
0.46645009464672615,0.937333345413208,6.308710362645798e-06,1.0,9.999999747378752e-05
0.46718595978935423,0.9368888735771179,8.858751360094175e-06,1.0,9.999999747378752e-05
0.4672275673861938,0.9377777576446533,1.250633315066807e-05,1.0,9.999999747378752e-05
0.46720885241354193,0.937333345413208,6.756223738193512e-06,1.0,9.999999747378752e-05
0.4674963243420821,0.937333345413208,6.933251013833797e-06,1.0,9.999999747378752e-05
0.4675499524142296,0.937333345413208,5.8564074352034365e-06,1.0,9.999999747378752e-05
0.46730452186359417,0.9377777576446533,1.4487707652733661e-05,1.0,9.999999747378752e-05
0.46683331312729104,0.9359999895095825,1.0140505324670813e-05,1.0,9.999999747378752e-05
0.46653506287262664,0.9355555772781372,6.128928434918635e-06,1.0,9.999999747378752e-05
0.4664598596194634,0.9355555772781372,8.099464888800866e-06,1.0,9.999999747378752e-05
0.4664659078451544,0.9355555772781372,6.4317241485696285e-06,1.0,9.999999747378752e-05
0.46663819463708994,0.9359999895095825,8.590311896114144e-06,1.0,9.999999747378752e-05
0.4670424985123231,0.9359999895095825,1.307901046675397e-05,1.0,9.999999747378752e-05
0.4666752449604254,0.9359999895095825,1.5241626388160511e-05,1.0,9.999999747378752e-05
0.46680384595186863,0.9368888735771179,1.4056025349418633e-05,1.0,9.999999747378752e-05
0.4669489921761144,0.9368888735771179,6.358524864481297e-06,1.0,9.999999747378752e-05
0.4671168250374544,0.9368888735771179,1.4184364936227211e-05,1.0,9.999999747378752e-05
0.46721611192483214,0.9368888735771179,6.467722589150071e-06,1.0,9.999999747378752e-05
0.46736214345355015,0.9368888735771179,7.079283961502369e-06,1.0,9.999999747378752e-05
0.46715382152457846,0.9364444613456726,1.699778638430871e-05,1.0,9.999999747378752e-05
0.46710496256742673,0.9355555772781372,6.882975183543749e-06,1.0,9.999999747378752e-05
0.46670668539398685,0.9364444613456726,9.135696433077101e-06,1.0,9.999999747378752e-05
0.4667282548976592,0.9368888735771179,1.6075669565907446e-05,1.0,9.999999747378752e-05
0.46653530594036824,0.9368888735771179,9.549430353217758e-06,1.0,9.999999747378752e-05
0.46667946421761025,0.9368888735771179,1.5638594166375695e-05,1.0,9.999999747378752e-05
0.46699711510696984,0.937333345413208,1.0997819117619656e-05,1.0,9.999999747378752e-05
0.4670881492296129,0.937333345413208,6.462720317358617e-06,1.0,9.999999747378752e-05
0.46757406973666304,0.9368888735771179,1.8486782995751128e-05,1.0,9.999999747378752e-05
0.4683126482316986,0.9368888735771179,1.0238463481073268e-05,1.0,9.999999747378752e-05
0.46874725079858115,0.9364444613456726,1.82467114427709e-05,1.0,9.999999747378752e-05
0.4683897209067121,0.9364444613456726,1.4072746685997118e-05,1.0,9.999999747378752e-05
0.468227868205873,0.9368888735771179,7.358902097621467e-06,1.0,9.999999747378752e-05
0.4676991426546374,0.937333345413208,9.307475633249851e-06,1.0,9.999999747378752e-05
0.46764401786185006,0.9377777576446533,5.732944744522683e-06,1.0,9.999999747378752e-05
0.467828613186781,0.9382222294807434,6.867220101412386e-06,1.0,9.999999747378752e-05
0.4680462809270462,0.9377777576446533,2.072278923151316e-05,1.0,9.999999747378752e-05
0.46884019694718354,0.9368888735771179,1.3464223829942057e-05,1.0,9.999999747378752e-05
0.4695108398794469,0.9364444613456726,1.0331346158636735e-05,1.0,9.999999747378752e-05
0.4700692293742682,0.9359999895095825,6.314430887869094e-06,1.0,9.999999747378752e-05
0.47012683588591647,0.937333345413208,1.189079610776389e-05,1.0,9.999999747378752e-05
0.4701557328137569,0.9377777576446533,6.249091671634233e-06,1.0,9.999999747378752e-05
0.4703664059522596,0.937333345413208,8.148979846737348e-06,1.0,9.999999747378752e-05
0.470587395023921,0.9377777576446533,7.578009099233896e-06,1.0,9.999999747378752e-05
0.4709009219407552,0.9377777576446533,7.148739061449305e-06,1.0,9.999999747378752e-05
0.4714648560450559,0.9382222294807434,1.4980686031776713e-05,1.0,9.999999747378752e-05
0.4718662901056521,0.9382222294807434,6.008530766848708e-06,1.0,9.999999747378752e-05
0.4721491252547563,0.9382222294807434,5.7923189051507506e-06,1.0,9.999999747378752e-05
0.4725582529785851,0.9386666417121887,1.3637551670399262e-05,1.0,9.999999747378752e-05
0.47245069818025653,0.9382222294807434,8.796561000053771e-06,1.0,9.999999747378752e-05
0.4719079342102895,0.9382222294807434,1.1576761331525632e-05,1.0,9.999999747378752e-05
0.4718109724189756,0.9382222294807434,4.237628854752984e-06,1.0,9.999999747378752e-05
0.4721760375465967,0.9382222294807434,9.44270628679078e-06,1.0,9.999999747378752e-05
0.47252006213858316,0.9382222294807434,9.509058261755854e-06,1.0,9.999999747378752e-05
0.4724547375373897,0.9377777576446533,9.595979508958408e-06,1.0,9.999999747378752e-05
0.471343735335555,0.9386666417121887,9.597819142072694e-06,1.0,9.999999747378752e-05
0.47044620900678963,0.9382222294807434,8.496271322655957e-06,1.0,9.999999747378752e-05
0.47040121421212866,0.9377777576446533,1.070465003431309e-05,1.0,9.999999747378752e-05
0.4704210684315393,0.9377777576446533,1.674366224324331e-05,1.0,9.999999747378752e-05
0.47053464075252266,0.9364444613456726,1.7391927787684834e-05,1.0,9.999999747378752e-05
0.47136899863010007,0.9364444613456726,6.2781985088804505e-06,1.0,9.999999747378752e-05
0.47182332714061076,0.9368888735771179,9.576222222676734e-06,1.0,9.999999747378752e-05
0.47185700689085147,0.9364444613456726,8.301719557493925e-06,1.0,9.999999747378752e-05
0.47180291161764176,0.9368888735771179,6.36305172520224e-06,1.0,9.999999747378752e-05
0.4712110887268704,0.9382222294807434,1.5620892463630297e-05,1.0,9.999999747378752e-05
0.4709283430559309,0.9377777576446533,8.059102256083862e-06,1.0,9.999999747378752e-05
0.47095380195143155,0.9377777576446533,4.661757400754141e-06,1.0,9.999999747378752e-05
0.4710272658814556,0.9377777576446533,1.0976136894896626e-05,1.0,9.999999747378752e-05
0.4707128811238043,0.9377777576446533,1.3772476610029117e-05,1.0,9.999999747378752e-05
0.47050107969998356,0.9382222294807434,9.07163512238185e-06,1.0,9.999999747378752e-05
0.47064560704007596,0.9382222294807434,8.536705077858641e-06,1.0,9.999999747378752e-05
0.47080368080228274,0.9377777576446533,1.004359874423244e-05,1.0,9.999999747378752e-05
0.4709437604164771,0.9377777576446533,4.941421089824872e-06,1.0,9.999999747378752e-05
0.471361697938617,0.9377777576446533,5.704578717995901e-06,1.0,9.999999747378752e-05
0.4714532990289287,0.9377777576446533,9.479278058279306e-06,1.0,9.999999747378752e-05
0.4714943311776749,0.937333345413208,6.549964524310781e-06,1.0,9.999999747378752e-05
0.4706342456340161,0.937333345413208,1.0276678316586185e-05,1.0,9.999999747378752e-05
0.47041258913935274,0.9377777576446533,7.155520812375471e-06,1.0,9.999999747378752e-05
0.47029589123521065,0.937333345413208,8.615492986791651e-06,1.0,9.999999747378752e-05
0.4701128538548267,0.9377777576446533,1.0200106102274731e-05,1.0,9.999999747378752e-05
0.4693972625499949,0.9382222294807434,5.386976587033132e-06,1.0,9.999999747378752e-05
0.4693137429389026,0.9386666417121887,8.679247666805168e-06,1.0,9.999999747378752e-05
0.46931747902262455,0.937333345413208,2.3403726787364577e-05,1.0,9.999999747378752e-05
0.46938398009368293,0.937333345413208,9.251539791875984e-06,1.0,9.999999747378752e-05
0.4693552047212339,0.9377777576446533,1.4401639064089977e-05,1.0,9.999999747378752e-05
0.4694607974240462,0.9382222294807434,3.4467976420273773e-06,1.0,9.999999747378752e-05
0.4698445627597539,0.9382222294807434,4.687968283178634e-06,1.0,9.999999747378752e-05
0.4701660264646994,0.9382222294807434,9.765721115400083e-06,1.0,9.999999747378752e-05
0.47064886458377075,0.9377777576446533,1.2027620054141153e-05,1.0,9.999999747378752e-05
0.47055824490877945,0.9377777576446533,6.133423412393313e-06,1.0,9.999999747378752e-05
0.4709478948893783,0.9377777576446533,1.0417567293188767e-05,1.0,9.999999747378752e-05
0.47235339791238967,0.937333345413208,2.0485924193053505e-05,1.0,9.999999747378752e-05
0.47439244987889145,0.9364444613456726,1.4676421957119602e-05,1.0,9.999999747378752e-05
0.47564120366497403,0.9368888735771179,9.426050692127319e-06,1.0,9.999999747378752e-05
0.4758520757290084,0.9368888735771179,1.1129737960800411e-05,1.0,9.999999747378752e-05
0.4759493560028625,0.937333345413208,1.4086584820688586e-05,1.0,9.999999747378752e-05
0.4761551455060091,0.9368888735771179,8.022072339372243e-06,1.0,9.999999747378752e-05
0.47597175947820464,0.9368888735771179,1.813108753412962e-05,1.0,9.999999747378752e-05
0.47343827354571233,0.9382222294807434,1.250899423030205e-05,1.0,9.999999747378752e-05
0.47201211144851996,0.9382222294807434,1.6285740333842114e-05,1.0,9.999999747378752e-05
0.4705246687853491,0.9399999976158142,6.37442203151295e-06,1.0,9.999999747378752e-05
0.4703531991689201,0.9395555257797241,8.05548156495206e-06,1.0,9.999999747378752e-05
0.47041293704828624,0.9395555257797241,7.952617273986107e-06,1.0,9.999999747378752e-05
0.47098236435390733,0.9395555257797241,1.070595785859041e-05,1.0,9.999999747378752e-05
0.47088802740127234,0.9395555257797241,7.262347535288427e-06,1.0,9.999999747378752e-05
0.4711605734310227,0.9395555257797241,5.904504942009225e-06,1.0,9.999999747378752e-05
0.4715630565300667,0.9386666417121887,6.517042118503014e-06,1.0,9.999999747378752e-05
0.4721179760941628,0.9382222294807434,8.22412741399603e-06,1.0,9.999999747378752e-05
0.47232009781390316,0.9382222294807434,6.642030406510457e-06,1.0,9.999999747378752e-05
0.47248330621908685,0.9377777576446533,8.20208545337664e-06,1.0,9.999999747378752e-05
0.4728068921664449,0.937333345413208,9.074246088857762e-06,1.0,9.999999747378752e-05
0.4727197688485899,0.9382222294807434,7.601351229823195e-06,1.0,9.999999747378752e-05
0.473221843032283,0.9382222294807434,5.789392500446411e-06,1.0,9.999999747378752e-05
0.4734449878201738,0.9377777576446533,3.7531522757490165e-06,1.0,9.999999747378752e-05
0.4736256791402122,0.9377777576446533,4.898472812783438e-06,1.0,9.999999747378752e-05
0.4737224651027999,0.9382222294807434,3.766751946386648e-06,1.0,9.999999747378752e-05
0.473810131233535,0.9382222294807434,7.955348188261268e-06,1.0,9.999999747378752e-05
0.4742681454419447,0.937333345413208,1.5705052966950463e-05,1.0,9.999999747378752e-05
0.4748995714468476,0.9377777576446533,9.283392862926121e-06,1.0,9.999999747378752e-05
0.4754451981682992,0.9377777576446533,5.309428455802845e-06,1.0,9.999999747378752e-05
0.4753021822074483,0.9377777576446533,4.87889489158988e-06,1.0,9.999999747378752e-05
0.47493360201016066,0.9377777576446533,1.1217845039936947e-05,1.0,9.999999747378752e-05
0.4740548946061895,0.9368888735771179,1.641752868454205e-05,1.0,9.999999747378752e-05
0.47463610377566634,0.9364444613456726,7.951963285449893e-06,1.0,9.999999747378752e-05
0.4757095685832129,0.9364444613456726,5.427721494925208e-06,1.0,9.999999747378752e-05
0.4767071325546436,0.9364444613456726,1.362796015382628e-05,1.0,9.999999747378752e-05
0.4772049178811608,0.9368888735771179,6.913590181284235e-06,1.0,9.999999747378752e-05
0.4777753216921673,0.9368888735771179,5.2708997318404725e-06,1.0,9.999999747378752e-05
0.47813972982758784,0.937333345413208,7.35172913846327e-06,1.0,9.999999747378752e-05
0.4783072676310433,0.937333345413208,3.867358127536136e-06,1.0,9.999999747378752e-05
0.4783887663152026,0.937333345413208,7.686894408834632e-06,1.0,9.999999747378752e-05
0.4773000372581539,0.937333345413208,1.1387896647647721e-05,1.0,9.999999747378752e-05
0.47665050801629655,0.937333345413208,6.381839906680398e-06,1.0,9.999999747378752e-05
0.4756330266561284,0.937333345413208,3.8885645408299754e-06,1.0,9.999999747378752e-05
0.4750662088956584,0.937333345413208,8.105108470772393e-06,1.0,9.999999747378752e-05
0.47489439797395566,0.9382222294807434,5.193148674152326e-06,1.0,9.999999747378752e-05
0.4750460964639395,0.9382222294807434,4.191337859083433e-06,1.0,9.999999747378752e-05
0.4752683935380042,0.9382222294807434,4.528475452389103e-06,1.0,9.999999747378752e-05
0.47628718395526026,0.9382222294807434,1.0487918432772857e-05,1.0,9.999999747378752e-05
0.47704342542087336,0.9382222294807434,6.891472243296448e-06,1.0,9.999999747378752e-05
0.47786600550972114,0.9342222213745117,3.630181216431083e-05,1.0,9.999999747378752e-05
0.4897622047765714,0.9275555610656738,6.577604115591384e-06,1.0,9.999999747378752e-05
0.4865620897733574,0.9297778010368347,2.057142014746205e-05,1.0,9.999999747378752e-05
0.484215989231828,0.9328888654708862,1.1202625173609704e-05,1.0,9.999999747378752e-05
0.4825585624508575,0.9364444613456726,1.4880424478178611e-05,1.0,9.999999747378752e-05
0.48292302168070417,0.937333345413208,1.3795376144116745e-05,1.0,9.999999747378752e-05
0.48481619555741134,0.9355555772781372,4.9651809167698955e-06,1.0,9.999999747378752e-05
0.4854147925375983,0.9351111054420471,8.774244044616353e-06,1.0,9.999999747378752e-05
0.48311447406141067,0.9355555772781372,1.6486590120621258e-05,1.0,9.999999747378752e-05
0.48147245576642994,0.9355555772781372,4.047347396408441e-06,1.0,9.999999747378752e-05
0.48089707917468616,0.9355555772781372,6.3583910450688566e-06,1.0,9.999999747378752e-05
0.48103372777995557,0.9355555772781372,5.540764017496258e-06,1.0,9.999999747378752e-05
0.4800623290869597,0.9364444613456726,1.589334645541385e-05,1.0,9.999999747378752e-05
0.48039718533552556,0.9359999895095825,8.204004043363966e-06,1.0,9.999999747378752e-05
0.48070193680289997,0.9364444613456726,3.538093857059721e-06,1.0,9.999999747378752e-05
0.4808070440109938,0.9364444613456726,4.2457074378035035e-06,1.0,9.999999747378752e-05
0.48115497132305024,0.937333345413208,6.286991827437305e-06,1.0,9.999999747378752e-05
0.4814144116540485,0.937333345413208,5.349323611881118e-06,1.0,9.999999747378752e-05
0.47967303140293166,0.9377777576446533,9.391373332618968e-06,1.0,9.999999747378752e-05
0.47867831640108105,0.9368888735771179,9.683476077043451e-06,1.0,9.999999747378752e-05
0.4781709394206308,0.937333345413208,5.136434713676863e-06,1.0,9.999999747378752e-05
0.4776065608842083,0.9364444613456726,1.1144531221361832e-05,1.0,9.999999747378752e-05
0.4774034788045089,0.9364444613456726,6.640825944487005e-06,1.0,9.999999747378752e-05
0.47791214897892675,0.9368888735771179,8.016310661332682e-06,1.0,9.999999747378752e-05
0.4780920199387151,0.937333345413208,5.302091802150244e-06,1.0,9.999999747378752e-05
0.4791106346878403,0.937333345413208,9.144043855485506e-06,1.0,9.999999747378752e-05
0.47977607698569974,0.937333345413208,6.805042658015737e-06,1.0,9.999999747378752e-05
0.48013563008438076,0.9377777576446533,4.458836086996598e-06,1.0,9.999999747378752e-05
0.4801239876283277,0.9382222294807434,5.8008269879792355e-06,1.0,9.999999747378752e-05
0.4802159827152627,0.9382222294807434,6.720911966112908e-06,1.0,9.999999747378752e-05
0.47991393410660244,0.9382222294807434,1.380506792338565e-05,1.0,9.999999747378752e-05
0.4769350297732257,0.9382222294807434,5.406983349530492e-06,1.0,9.999999747378752e-05
0.4761104773299385,0.9377777576446533,4.679563213358051e-06,1.0,9.999999747378752e-05
0.4756598137451375,0.9386666417121887,5.741234796005301e-06,1.0,9.999999747378752e-05
0.4760773304800023,0.9386666417121887,7.042497112706769e-06,1.0,9.999999747378752e-05
0.47596748579705633,0.9386666417121887,6.220837520231726e-06,1.0,9.999999747378752e-05
0.4760869689865018,0.9377777576446533,7.37232024948753e-06,1.0,9.999999747378752e-05
0.47650296927654845,0.9377777576446533,3.8079817386460492e-06,1.0,9.999999747378752e-05
0.47689832932582105,0.9377777576446533,3.3178097328345756e-06,1.0,9.999999747378752e-05
0.47748652560343946,0.9377777576446533,5.21721816585341e-06,1.0,9.999999747378752e-05
0.47800634487136145,0.9377777576446533,3.9366925102513054e-06,1.0,9.999999747378752e-05
0.47845618093508085,0.937333345413208,8.719208868569695e-06,1.0,9.999999747378752e-05
0.4788934735274782,0.937333345413208,5.100182193928049e-06,1.0,9.999999747378752e-05
0.47939047835600024,0.937333345413208,3.4591926114444503e-06,1.0,9.999999747378752e-05
0.4799239744825336,0.937333345413208,6.571151219759485e-06,1.0,9.999999747378752e-05
0.4802752076022976,0.937333345413208,6.722492213157238e-06,1.0,9.999999747378752e-05
0.48032363636126985,0.9377777576446533,5.8353856675239516e-06,1.0,9.999999747378752e-05
0.480326387036152,0.9382222294807434,6.815960528911091e-06,1.0,9.999999747378752e-05
0.4802053106311052,0.9382222294807434,3.967443532019388e-06,1.0,9.999999747378752e-05
0.48019725271229213,0.9382222294807434,4.0849749348126356e-06,1.0,9.999999747378752e-05
0.4799762708809402,0.9382222294807434,3.974873212428065e-06,1.0,9.999999747378752e-05
0.47921289468140316,0.9382222294807434,1.8677913030842318e-05,1.0,9.999999747378752e-05
0.4762678283667865,0.9386666417121887,7.4763807861017995e-06,1.0,9.999999747378752e-05
0.47558988004007996,0.9386666417121887,6.7682508233701814e-06,1.0,9.999999747378752e-05
0.47502247885941024,0.9386666417121887,4.405379884701688e-06,1.0,9.999999747378752e-05
0.4752470903271939,0.9386666417121887,3.7109525546838997e-06,1.0,9.999999747378752e-05
0.47576731676024003,0.9386666417121887,2.9628098291141214e-06,1.0,9.999999747378752e-05
0.47640094027167007,0.9386666417121887,4.3410833350208125e-06,1.0,9.999999747378752e-05
0.47719453474709955,0.9386666417121887,5.956077118753456e-06,1.0,9.999999747378752e-05
0.4778885380368774,0.9382222294807434,3.0388441737159157e-06,1.0,9.999999747378752e-05
0.47806306978891333,0.9382222294807434,5.204029392189113e-06,1.0,9.999999747378752e-05
0.4779348687611861,0.9386666417121887,1.2435430584446294e-05,1.0,9.999999747378752e-05
0.4782841998694166,0.9386666417121887,7.583234968478792e-06,1.0,9.999999747378752e-05
0.4792686203303878,0.9386666417121887,5.8214838245476134e-06,1.0,9.999999747378752e-05
0.4798041320484218,0.9386666417121887,4.077635552675929e-06,1.0,9.999999747378752e-05
0.48031357066495367,0.9386666417121887,7.71403143517091e-06,1.0,9.999999747378752e-05
0.4806979286852499,0.9377777576446533,5.183135232073255e-06,1.0,9.999999747378752e-05
0.48088779102925155,0.9386666417121887,4.760881216498092e-06,1.0,9.999999747378752e-05
0.48088064070208725,0.9391111135482788,4.929710672513466e-06,1.0,9.999999747378752e-05
0.48083477870041214,0.9386666417121887,4.772821412188932e-06,1.0,9.999999747378752e-05
0.4808721794287123,0.9382222294807434,7.994429397513159e-06,1.0,9.999999747378752e-05
0.4807300316492343,0.9377777576446533,6.7239304189570245e-06,1.0,9.999999747378752e-05
0.48145406770205873,0.9377777576446533,4.8412417145300425e-06,1.0,9.999999747378752e-05
0.4820565562744618,0.9377777576446533,3.270606819569366e-06,1.0,9.999999747378752e-05
0.4826284622284816,0.9377777576446533,7.4339431321277515e-06,1.0,9.999999747378752e-05
0.4834273418104969,0.937333345413208,3.1635573432140516e-06,1.0,9.999999747378752e-05
0.4841034337728882,0.9364444613456726,6.34453677048441e-06,1.0,9.999999747378752e-05
0.4831299324035376,0.9368888735771179,5.393177252699388e-06,1.0,9.999999747378752e-05
0.4830619703597248,0.9368888735771179,7.265438906870259e-06,1.0,9.999999747378752e-05
0.4836177588436102,0.9368888735771179,7.870668849136564e-06,1.0,9.999999747378752e-05
0.4837437496549329,0.937333345413208,4.1484401681373125e-06,1.0,9.999999747378752e-05
0.4844850168062373,0.937333345413208,6.337745425753383e-06,1.0,9.999999747378752e-05
0.4844506523642051,0.9377777576446533,6.81293263733096e-06,1.0,9.999999747378752e-05
0.4835175613677917,0.9377777576446533,9.373903816594976e-06,1.0,9.999999747378752e-05
0.48289391949273863,0.9382222294807434,4.635034078091849e-06,1.0,9.999999747378752e-05
0.4827016846231079,0.9386666417121887,5.146629035152728e-06,1.0,9.999999747378752e-05
0.482326568881646,0.9382222294807434,6.207411932336982e-06,1.0,9.999999747378752e-05
0.48220826216204576,0.9382222294807434,4.640686864149756e-06,1.0,9.999999747378752e-05
0.48191935251814966,0.9377777576446533,3.7582800468953794e-06,1.0,9.999999747378752e-05
0.4826020390440616,0.9377777576446533,6.5827741364046235e-06,1.0,9.999999747378752e-05
0.48365381239765076,0.9382222294807434,6.271712305533583e-06,1.0,9.999999747378752e-05
0.48458294337654156,0.9377777576446533,2.530082204430073e-06,1.0,9.999999747378752e-05
0.48498670362264945,0.9377777576446533,8.537515088391956e-06,1.0,9.999999747378752e-05
0.485058761391354,0.9377777576446533,4.9990574334515255e-06,1.0,9.999999747378752e-05
0.48543734657265475,0.9377777576446533,5.3976340786903166e-06,1.0,9.999999747378752e-05
0.48500938314694214,0.9377777576446533,3.6105849630985175e-06,1.0,9.999999747378752e-05
0.4848441257816043,0.9377777576446533,3.9720214263070374e-06,1.0,9.999999747378752e-05
0.48436838241582136,0.9377777576446533,3.67774739061133e-06,1.0,9.999999747378752e-05
0.48421756703322194,0.9382222294807434,4.453616624232382e-06,1.0,9.999999747378752e-05
0.4842082656108531,0.9382222294807434,3.938379752071342e-06,1.0,9.999999747378752e-05
0.4844049285732907,0.9377777576446533,4.415663956024218e-06,1.0,9.999999747378752e-05
0.4854669945662069,0.9386666417121887,9.434397623408586e-06,1.0,9.999999747378752e-05
0.4866028894897756,0.9382222294807434,2.8314256451267283e-06,1.0,9.999999747378752e-05
0.4874515003561788,0.9386666417121887,5.777729472356441e-06,1.0,9.999999747378752e-05
0.4882818652796923,0.9377777576446533,7.121063887097989e-06,1.0,9.999999747378752e-05
0.4866641220731707,0.9386666417121887,9.27840241638478e-06,1.0,9.999999747378752e-05
0.48745257403864695,0.9382222294807434,4.123595296732674e-06,1.0,9.999999747378752e-05
0.48831927954899645,0.9382222294807434,2.9852185925847152e-06,1.0,9.999999747378752e-05
0.4886059913875094,0.9377777576446533,2.4001500833037424e-06,1.0,9.999999747378752e-05
0.48848422464891844,0.9377777576446533,4.632153697457397e-06,1.0,9.999999747378752e-05
0.4885095092347755,0.9382222294807434,3.4558385614218423e-06,1.0,9.999999747378752e-05
0.48851662019141906,0.9382222294807434,3.126833074929891e-06,1.0,9.999999747378752e-05
0.48797520842153264,0.9386666417121887,6.407868873793632e-06,1.0,9.999999747378752e-05
0.48487709592943085,0.9382222294807434,4.7843859738350145e-06,1.0,9.999999747378752e-05
0.4834060327062787,0.9386666417121887,2.7143478091602448e-06,1.0,9.999999747378752e-05
0.4827281157614177,0.9377777576446533,6.868311160360463e-06,1.0,9.999999747378752e-05
0.4827749839681328,0.9377777576446533,2.521262178561301e-06,1.0,9.999999747378752e-05
0.48343903993976667,0.937333345413208,4.712972324341536e-06,1.0,9.999999747378752e-05
0.4846421412601725,0.937333345413208,6.772621494747e-06,1.0,9.999999747378752e-05
0.48621114447875574,0.937333345413208,4.167229170889186e-06,1.0,9.999999747378752e-05
0.4867147809415812,0.9368888735771179,4.698891316365916e-06,1.0,9.999999747378752e-05
0.486694898535787,0.9368888735771179,3.660377052256081e-06,1.0,9.999999747378752e-05
0.4868088146729408,0.9364444613456726,3.5624139381980057e-06,1.0,9.999999747378752e-05
0.48768636739583354,0.9364444613456726,4.56923246383667e-06,1.0,9.999999747378752e-05
0.48841133671666404,0.9364444613456726,2.71557363885222e-06,1.0,9.999999747378752e-05
0.48880094520911865,0.9364444613456726,2.531515092414338e-06,1.0,9.999999747378752e-05
0.48887917917634016,0.9364444613456726,5.3157695947447796e-06,1.0,9.999999747378752e-05
0.48880440284807175,0.9368888735771179,1.0210562737483997e-05,1.0,9.999999747378752e-05
0.4890111744585837,0.9368888735771179,3.4488112814869966e-06,1.0,9.999999747378752e-05
0.48868408222660764,0.937333345413208,4.218677788230707e-06,1.0,9.999999747378752e-05
0.48833924471502943,0.9377777576446533,3.5850723324983847e-06,1.0,9.999999747378752e-05
0.4885920653798409,0.937333345413208,5.305361385580909e-06,1.0,9.999999747378752e-05
0.4888950970512199,0.9377777576446533,2.8526553551273537e-06,1.0,9.999999747378752e-05
0.48921774005723406,0.9377777576446533,4.048068452902953e-06,1.0,9.999999747378752e-05
0.48922168922175074,0.9386666417121887,3.866868180011806e-06,1.0,9.999999747378752e-05
0.48906537667992234,0.9386666417121887,2.680029359908076e-06,1.0,9.999999747378752e-05
0.48807752786161757,0.9386666417121887,6.316018043435179e-06,1.0,9.999999747378752e-05
0.4880392764549985,0.9382222294807434,2.8111727806390264e-06,1.0,9.999999747378752e-05
0.48800880634535054,0.9386666417121887,1.818412132706726e-06,1.0,9.999999747378752e-05
0.4852420573491082,0.9382222294807434,8.565755964809796e-06,1.0,9.999999747378752e-05
0.4846821518987306,0.937333345413208,3.391927508346271e-06,1.0,9.999999747378752e-05
0.4863483723592312,0.9377777576446533,5.251729541669192e-06,1.0,9.999999747378752e-05
0.48755249375600457,0.9377777576446533,5.884856749617029e-06,1.0,9.999999747378752e-05
0.4896484960590648,0.937333345413208,6.5888513636309654e-06,1.0,9.999999747378752e-05
0.4902398358475643,0.937333345413208,3.390986894373782e-06,1.0,9.999999747378752e-05
0.489962759310155,0.9368888735771179,3.1492453636019492e-06,1.0,9.999999747378752e-05
0.49003683207348037,0.9368888735771179,3.8060434089857155e-06,1.0,9.999999747378752e-05
0.4900181562941799,0.9368888735771179,3.6282076471252365e-06,1.0,9.999999747378752e-05
0.48980216354378736,0.9368888735771179,2.783505588013213e-06,1.0,9.999999747378752e-05
0.48999701022686654,0.9368888735771179,5.156601073394995e-06,1.0,9.999999747378752e-05
0.48919127361061226,0.9364444613456726,3.651320301287342e-06,1.0,9.999999747378752e-05
0.48891166628895877,0.9364444613456726,3.181909645718406e-06,1.0,9.999999747378752e-05
0.48901294631344244,0.9364444613456726,3.316115864436142e-06,1.0,9.999999747378752e-05
0.4886126015699465,0.9364444613456726,3.4195893131254705e-06,1.0,9.999999747378752e-05
0.48864745637773394,0.9364444613456726,2.787766759865917e-06,1.0,9.999999747378752e-05
0.4884636819279745,0.9364444613456726,3.0336145973706154e-06,1.0,9.999999747378752e-05
0.4887077931165564,0.9364444613456726,3.1985597197490277e-06,1.0,9.999999747378752e-05
0.48936320104862624,0.9368888735771179,7.338324830925558e-06,1.0,9.999999747378752e-05
0.4897671853734269,0.9368888735771179,3.0901190621079876e-06,1.0,9.999999747378752e-05
0.4901299506698903,0.9377777576446533,5.114534102176549e-06,1.0,9.999999747378752e-05
0.49049995347607284,0.9377777576446533,4.0924622662714685e-06,1.0,9.999999747378752e-05
0.49060069080771074,0.9377777576446533,4.15650567447301e-06,1.0,9.999999747378752e-05
0.49088573123263873,0.937333345413208,3.6821895046159625e-06,1.0,9.999999747378752e-05
0.4917112290238065,0.9391111135482788,3.5192346604162596e-06,1.0,9.999999747378752e-05
0.49155533109023225,0.9391111135482788,6.047984366887249e-06,1.0,9.999999747378752e-05
0.48737613551728404,0.9391111135482788,3.144481350318529e-06,1.0,9.999999747378752e-05
0.48610477777400735,0.9391111135482788,2.481440640622168e-06,1.0,9.999999747378752e-05
0.4862425276156565,0.9386666417121887,2.690289526071865e-06,1.0,9.999999747378752e-05
0.48665692643983816,0.9382222294807434,2.7601563042480847e-06,1.0,9.999999747378752e-05
0.4874503934705975,0.9382222294807434,2.317176513315644e-06,1.0,9.999999747378752e-05
0.48776823781428447,0.9382222294807434,4.319793853937881e-06,1.0,9.999999747378752e-05
0.4880700166829563,0.9386666417121887,4.3980410337098875e-06,1.0,9.999999747378752e-05
0.48836590958053694,0.9386666417121887,1.8184113296229044e-06,1.0,9.999999747378752e-05
0.48844412404379406,0.9382222294807434,2.777514251647517e-06,1.0,9.999999747378752e-05
0.4888146152479578,0.9377777576446533,4.399969002406579e-06,1.0,9.999999747378752e-05
0.4889688603149316,0.9382222294807434,6.381546629199875e-06,1.0,9.999999747378752e-05
0.48923216445907425,0.9377777576446533,2.1369353253248845e-06,1.0,9.999999747378752e-05
0.48972537821032813,0.9377777576446533,8.14706727032899e-06,1.0,9.999999747378752e-05
0.49025335958101823,0.9377777576446533,2.958752635095152e-06,1.0,9.999999747378752e-05
0.49109264500106514,0.9377777576446533,2.665242776856758e-06,1.0,9.999999747378752e-05
0.49211260487303105,0.9377777576446533,2.1686280761059605e-06,1.0,9.999999747378752e-05
0.4929691131561843,0.9377777576446533,2.766115319900564e-06,1.0,9.999999747378752e-05
0.4935505867161543,0.9386666417121887,4.068798738444457e-06,1.0,9.999999747378752e-05
0.4940774781885934,0.9391111135482788,2.5102905206040305e-06,1.0,9.999999747378752e-05
0.4941910289020734,0.9382222294807434,5.543459668842843e-06,1.0,9.999999747378752e-05
0.4949444340003409,0.9377777576446533,2.394662398273795e-06,1.0,9.999999747378752e-05
0.4954685870789381,0.9382222294807434,2.7343874935468194e-06,1.0,9.999999747378752e-05
0.49647475957702014,0.937333345413208,5.592665449512424e-06,1.0,9.999999747378752e-05
0.4992524592048411,0.9382222294807434,5.1474709689500745e-06,1.0,9.999999747378752e-05
0.5005726017422013,0.9382222294807434,2.676472524399287e-06,1.0,9.999999747378752e-05
0.5010239838502362,0.9382222294807434,1.995075508602895e-06,1.0,9.999999747378752e-05
0.5005165611174202,0.9382222294807434,8.247178207966498e-06,1.0,9.999999747378752e-05
0.4983278405566806,0.9386666417121887,6.1935606063343585e-06,1.0,9.999999747378752e-05
0.4959630328085548,0.9386666417121887,1.6064595947682391e-06,1.0,9.999999747378752e-05
0.49516023538012055,0.9391111135482788,2.2449243879236745e-06,1.0,9.999999747378752e-05
0.4952262550145252,0.9391111135482788,3.3339750407321844e-06,1.0,9.999999747378752e-05
0.4954726224458697,0.9386666417121887,2.934619547886541e-06,1.0,9.999999747378752e-05
0.496199084141168,0.9391111135482788,2.0449064222702873e-06,1.0,9.999999747378752e-05
0.49680222594570184,0.9391111135482788,2.549839524363051e-06,1.0,9.999999747378752e-05
0.4968062391587156,0.9395555257797241,7.061820084345527e-06,1.0,9.999999747378752e-05
0.4966738069736004,0.9399999976158142,1.9116333187412237e-06,1.0,9.999999747378752e-05
0.49626825287107534,0.9395555257797241,2.478824513673317e-06,1.0,9.999999747378752e-05
0.496036300665779,0.9395555257797241,2.140987340681022e-06,1.0,9.999999747378752e-05
0.4958956032436561,0.9386666417121887,2.4223053242167226e-06,1.0,9.999999747378752e-05
0.49674700542453565,0.9386666417121887,5.52094059457886e-06,1.0,9.999999747378752e-05
0.49732407605976087,0.9382222294807434,2.9887781965953763e-06,1.0,9.999999747378752e-05
0.49776780153311706,0.9377777576446533,4.944153126416495e-06,1.0,9.999999747378752e-05
0.49926107547016746,0.9382222294807434,3.618423503212398e-06,1.0,9.999999747378752e-05
0.5001839950755127,0.9386666417121887,2.4146895793819567e-06,1.0,9.999999747378752e-05
0.498066666488835,0.9391111135482788,4.658949252188904e-06,1.0,9.999999747378752e-05
0.4971820288043772,0.9395555257797241,2.93679720016371e-06,1.0,9.999999747378752e-05
0.4963508675305275,0.9395555257797241,1.877776679066301e-06,1.0,9.999999747378752e-05
0.49596317184384336,0.9395555257797241,2.750598095644818e-06,1.0,9.999999747378752e-05
0.4955911153198841,0.9391111135482788,1.6593863047091873e-06,1.0,9.999999747378752e-05
0.4958374687474537,0.9391111135482788,1.7378178072249283e-06,1.0,9.999999747378752e-05
0.4964276415713852,0.9391111135482788,2.8211729731992817e-06,1.0,9.999999747378752e-05
0.4969440889490854,0.9391111135482788,4.199403978418559e-06,1.0,9.999999747378752e-05
0.49747623355105813,0.9391111135482788,1.9273680281912677e-06,1.0,9.999999747378752e-05
0.4966964176702514,0.9382222294807434,8.79867890762398e-06,1.0,9.999999747378752e-05
0.49622025177704404,0.9382222294807434,3.998708190920297e-06,1.0,9.999999747378752e-05
0.498181827134513,0.937333345413208,7.45292926512775e-06,1.0,9.999999747378752e-05
0.5008326113124427,0.937333345413208,2.564646623795852e-06,1.0,9.999999747378752e-05
0.5026931148336825,0.937333345413208,3.2850920488272095e-06,1.0,9.999999747378752e-05
0.5035057358178702,0.9377777576446533,1.7044474916474427e-06,1.0,9.999999747378752e-05
0.5037987837973467,0.9377777576446533,1.8479746840966981e-06,1.0,9.999999747378752e-05
0.5038071227106696,0.9382222294807434,1.4512464822473703e-06,1.0,9.999999747378752e-05
0.5036075166910788,0.9377777576446533,5.452947661069629e-06,1.0,9.999999747378752e-05
0.5037785615291764,0.9382222294807434,1.5151450988923899e-06,1.0,9.999999747378752e-05
0.5050774822516495,0.9382222294807434,2.8585488980752415e-06,1.0,9.999999747378752e-05
0.505220709757665,0.9382222294807434,3.03979725777026e-06,1.0,9.999999747378752e-05
0.5058293188801981,0.9382222294807434,4.362263542134315e-06,1.0,9.999999747378752e-05
0.5059897335229565,0.9386666417121887,2.1414661860035267e-06,1.0,9.999999747378752e-05
0.5058533036890867,0.9382222294807434,3.059578191368928e-06,1.0,9.999999747378752e-05
0.5050703687071717,0.9377777576446533,2.2792604795540682e-06,1.0,9.999999747378752e-05
0.5043441912316533,0.9377777576446533,1.254077446901647e-06,1.0,9.999999747378752e-05
0.5042573033753288,0.9377777576446533,1.8641846372702276e-06,1.0,9.999999747378752e-05
0.5042882379227139,0.9377777576446533,1.4131035300124494e-06,1.0,9.999999747378752e-05
0.5054601578455767,0.9382222294807434,3.6546674655255627e-06,1.0,9.999999747378752e-05
0.505853800150249,0.9382222294807434,4.113114671781659e-06,1.0,9.999999747378752e-05
0.5049007450640112,0.9386666417121887,3.3973589361266932e-06,1.0,9.999999747378752e-05
0.5038369410120614,0.9377777576446533,4.037207629153272e-06,1.0,9.999999747378752e-05
0.5034358704238966,0.937333345413208,3.1814301228223487e-06,1.0,9.999999747378752e-05
0.5032919695128858,0.937333345413208,3.2004552303988023e-06,1.0,9.999999747378752e-05
0.5032648993200612,0.9377777576446533,2.6302094775019214e-06,1.0,9.999999747378752e-05
0.503271628965923,0.9377777576446533,3.0528982624673516e-06,1.0,9.999999747378752e-05
0.5039091741707492,0.9377777576446533,2.0089004192413996e-06,1.0,9.999999747378752e-05
0.5044902707089893,0.9377777576446533,1.5103764417290222e-06,1.0,9.999999747378752e-05
0.5046022728863626,0.9377777576446533,2.7789813671006413e-06,1.0,9.999999747378752e-05
0.5045891282459027,0.9377777576446533,1.548505983009818e-06,1.0,9.999999747378752e-05
0.5011427391063781,0.9395555257797241,1.286363456165418e-05,1.0,9.999999747378752e-05
0.5001214025157169,0.9395555257797241,1.4772354679735145e-06,1.0,9.999999747378752e-05
0.49922766947787417,0.9399999976158142,3.7335565648390913e-06,1.0,9.999999747378752e-05
0.4988899838464919,0.9399999976158142,2.2399216941266785e-06,1.0,9.999999747378752e-05
0.4989378657340959,0.9391111135482788,2.9517622679122726e-06,1.0,9.999999747378752e-05
0.49873745311547596,0.9395555257797241,2.1755435682280224e-06,1.0,9.999999747378752e-05
0.49817063342199497,0.9386666417121887,4.123362213249493e-06,1.0,9.999999747378752e-05
0.4980068016681312,0.9377777576446533,2.2919022503629095e-06,1.0,9.999999747378752e-05
0.4981559650086592,0.9377777576446533,2.376771368290065e-06,1.0,9.999999747378752e-05
0.4983964315785197,0.9377777576446533,3.3325649046673788e-06,1.0,9.999999747378752e-05
0.49851694299527977,0.9377777576446533,2.452327840728685e-06,1.0,9.999999747378752e-05
0.4987866094956658,0.937333345413208,3.1997056958061874e-06,1.0,9.999999747378752e-05
0.4988194170825865,0.937333345413208,3.4050440522150893e-06,1.0,9.999999747378752e-05
0.4990708981255567,0.937333345413208,2.4375769944526836e-06,1.0,9.999999747378752e-05
0.5000112167629823,0.937333345413208,1.963601431270945e-06,1.0,9.999999747378752e-05
0.50026776544252,0.937333345413208,2.069688743176812e-06,1.0,9.999999747378752e-05
0.5003163922892572,0.937333345413208,1.7525889925309457e-06,1.0,9.999999747378752e-05
0.49978742724655945,0.937333345413208,2.1819833737026784e-06,1.0,9.999999747378752e-05
0.4996234188940683,0.937333345413208,4.0346712776226924e-06,1.0,9.999999747378752e-05
0.49892179003688003,0.937333345413208,1.6710651016182965e-06,1.0,9.999999747378752e-05
0.49883925146029245,0.937333345413208,4.969605826772749e-06,1.0,9.999999747378752e-05
0.49950384913881135,0.937333345413208,2.0036567311763063e-06,1.0,9.999999747378752e-05
0.49972558975219283,0.937333345413208,2.3419680965162116e-06,1.0,9.999999747378752e-05
0.4995403759214573,0.9377777576446533,1.750219491441385e-06,1.0,9.999999747378752e-05
0.4987235813091158,0.9377777576446533,3.7604987519443965e-06,1.0,9.999999747378752e-05
0.4977900294909826,0.9382222294807434,2.3142886411733345e-06,1.0,9.999999747378752e-05
0.4965648395336281,0.9377777576446533,2.525535203858453e-06,1.0,9.999999747378752e-05
0.49698537692095873,0.9386666417121887,4.1204931990250774e-06,1.0,9.999999747378752e-05
0.4983023644809851,0.9382222294807434,3.7769922764709918e-06,1.0,9.999999747378752e-05
0.4991271494221246,0.937333345413208,2.5217324709956302e-06,1.0,9.999999747378752e-05
0.49970807550349733,0.937333345413208,2.2888058874741545e-06,1.0,9.999999747378752e-05
0.5002213327106413,0.9377777576446533,2.549110296968138e-06,1.0,9.999999747378752e-05
0.5001730196691159,0.937333345413208,1.9121060877296257e-06,1.0,9.999999747378752e-05
0.5006092743741094,0.937333345413208,1.5847618960833642e-06,1.0,9.999999747378752e-05
0.5004997250967502,0.937333345413208,2.0756156036441097e-06,1.0,9.999999747378752e-05
0.5011123412450095,0.937333345413208,2.7148449580636224e-06,1.0,9.999999747378752e-05
0.5019720152152818,0.9391111135482788,4.51857314510562e-06,1.0,9.999999747378752e-05
0.503463611395812,0.9377777576446533,3.1478059681830927e-06,1.0,9.999999747378752e-05
0.5039034317715207,0.9382222294807434,1.9020754498342285e-06,1.0,9.999999747378752e-05
0.5037143850342882,0.9382222294807434,6.350167735945434e-06,1.0,9.999999747378752e-05
0.5031275474710466,0.9377777576446533,3.1695058642071673e-06,1.0,9.999999747378752e-05
0.5034367012315245,0.9377777576446533,1.6899019092306845e-06,1.0,9.999999747378752e-05
0.5033841604946341,0.9386666417121887,3.607917790304782e-06,1.0,9.999999747378752e-05
0.5028707439990466,0.9386666417121887,2.4198997161875015e-06,1.0,9.999999747378752e-05
0.5029038416602509,0.9382222294807434,2.8781495211660515e-06,1.0,9.999999747378752e-05
0.5031391538431208,0.9382222294807434,5.8688291173893955e-06,1.0,9.999999747378752e-05
0.5034769985104492,0.937333345413208,1.471750366363267e-06,1.0,9.999999747378752e-05
0.5040702537405688,0.937333345413208,1.8887337782871327e-06,1.0,9.999999747378752e-05
0.5062189046839808,0.9377777576446533,5.745271861087531e-06,1.0,9.999999747378752e-05
0.5080666449285179,0.9377777576446533,2.695978400424792e-06,1.0,9.999999747378752e-05
0.5089976377288478,0.937333345413208,1.5640168940080911e-06,1.0,9.999999747378752e-05
0.5077391429179218,0.9382222294807434,6.425430925446562e-06,1.0,9.999999747378752e-05
0.5041176035569725,0.9391111135482788,1.374235973798932e-06,1.0,9.999999747378752e-05
0.502524649371697,0.9391111135482788,2.36699568995391e-06,1.0,9.999999747378752e-05
0.5018241902159231,0.9391111135482788,2.8621653182199224e-06,1.0,9.999999747378752e-05
0.5020150137733985,0.9391111135482788,2.013433306274237e-06,1.0,9.999999747378752e-05
0.5021262147691442,0.9386666417121887,2.6788332861542586e-06,1.0,9.999999747378752e-05
0.5022088979540478,0.9386666417121887,6.4851320694288e-06,1.0,9.999999747378752e-05
0.5029589487330655,0.9386666417121887,3.7666352291125803e-06,1.0,9.999999747378752e-05
0.5037304157896086,0.9386666417121887,4.141745481319958e-06,1.0,9.999999747378752e-05
0.5046875826153434,0.9395555257797241,2.7343939777892955e-06,1.0,9.999999747378752e-05
0.5057000385216505,0.9395555257797241,1.6896649776754203e-06,1.0,9.999999747378752e-05
0.5061695077866284,0.9391111135482788,1.0354478749832196e-06,1.0,9.999999747378752e-05
0.5234411331999448,0.9408888816833496,1.1592823630053318e-05,1.0,9.999999747378752e-05
0.5281963087279963,0.9395555257797241,3.019530331584974e-06,1.0,9.999999747378752e-05
0.526185502278899,0.9391111135482788,3.109885337835294e-06,1.0,9.999999747378752e-05
0.5238388703762785,0.9395555257797241,3.1175337644526733e-06,1.0,9.999999747378752e-05
0.5222047856482974,0.9395555257797241,2.293336950970115e-06,1.0,9.999999747378752e-05
0.5221492729518076,0.9386666417121887,3.3201784044649686e-06,1.0,9.999999747378752e-05
0.5220208427442404,0.9386666417121887,1.498932380854967e-06,1.0,9.999999747378752e-05
0.5059883116135967,0.9413333535194397,4.980506962056097e-06,1.0,9.999999747378752e-05
0.5002761025821971,0.941777765750885,1.475564874453994e-06,1.0,9.999999747378752e-05
0.4975123450275899,0.9408888816833496,3.8305152957036626e-06,1.0,9.999999747378752e-05
0.4968078552658336,0.9404444694519043,2.811151018249802e-06,1.0,9.999999747378752e-05
0.4975116876421673,0.9391111135482788,1.0340180792809405e-06,1.0,9.999999747378752e-05
0.4988319789659608,0.9386666417121887,1.1215170502509864e-06,1.0,9.999999747378752e-05
0.5000209523199302,0.9382222294807434,2.367946549838962e-06,1.0,9.999999747378752e-05
0.5016397098493216,0.9382222294807434,1.8029123539236026e-06,1.0,9.999999747378752e-05
0.5038943070545769,0.9382222294807434,1.8408184691907082e-06,1.0,9.999999747378752e-05
0.505800879487558,0.9382222294807434,7.748233321763109e-06,1.0,9.999999747378752e-05
0.5111356455948223,0.9368888735771179,1.0745496147137602e-06,1.0,9.999999747378752e-05
0.518294752276547,0.9364444613456726,2.6442802118253893e-06,1.0,9.999999747378752e-05
0.5242366780837101,0.9355555772781372,2.8323777005425654e-06,1.0,9.999999747378752e-05
0.5309526861276805,0.9355555772781372,1.7719172792567406e-06,1.0,9.999999747378752e-05
0.5335846294561983,0.9355555772781372,2.3822586645110277e-06,1.0,9.999999747378752e-05
0.5336873439517262,0.9359999895095825,1.6145575509654009e-06,1.0,9.999999747378752e-05
0.5317220604022328,0.9355555772781372,4.445408972969744e-06,1.0,9.999999747378752e-05
0.5237175691061537,0.9355555772781372,2.2968952944211194e-06,1.0,9.999999747378752e-05
0.5206599349627884,0.9355555772781372,1.5971563261700795e-06,1.0,9.999999747378752e-05
0.5172288579742098,0.9346666932106018,4.539236792879819e-06,1.0,9.999999747378752e-05
0.517619422664241,0.9333333373069763,1.9597898281062952e-06,1.0,9.999999747378752e-05
0.5158106381512314,0.9342222213745117,3.95759601269674e-06,1.0,9.999999747378752e-05
0.5137425604263921,0.9364444613456726,1.4593545683965204e-06,1.0,9.999999747378752e-05
0.5139122911973116,0.9368888735771179,2.3813069869902392e-06,1.0,9.999999747378752e-05
0.5145134999288442,0.937333345413208,1.0590517758828356e-06,1.0,9.999999747378752e-05
0.5147722701927016,0.937333345413208,1.8563127232482658e-06,1.0,9.999999747378752e-05
0.5136676571269818,0.937333345413208,2.4485028498020254e-06,1.0,9.999999747378752e-05
0.5133467336065226,0.9368888735771179,1.482713842051453e-06,1.0,9.999999747378752e-05
0.5133842659195247,0.9368888735771179,2.2601864111493344e-06,1.0,9.999999747378752e-05
0.5135956651469058,0.9364444613456726,2.4954878481366904e-06,1.0,9.999999747378752e-05
0.5132937518341658,0.9368888735771179,1.3093897159706104e-06,1.0,9.999999747378752e-05
0.5130906029558828,0.937333345413208,2.155240119463997e-06,1.0,9.999999747378752e-05
0.5121877894699554,0.937333345413208,2.3891616147011517e-06,1.0,9.999999747378752e-05
0.5111802734070335,0.937333345413208,2.1245208918116988e-06,1.0,9.999999747378752e-05
0.5099814732273393,0.9377777576446533,1.2612295167855337e-06,1.0,9.999999747378752e-05
0.5096750454190673,0.9377777576446533,1.9349442391103366e-06,1.0,9.999999747378752e-05
0.5102220138990171,0.937333345413208,1.0557148852967656e-06,1.0,9.999999747378752e-05
0.5111309118502625,0.937333345413208,9.920571928887512e-07,1.0,9.999999747378752e-05
0.5115121281146955,0.937333345413208,2.3464958685508464e-06,1.0,9.999999747378752e-05
0.5114662202613179,0.937333345413208,1.7594842133803469e-06,1.0,9.999999747378752e-05
0.5112709898485036,0.9377777576446533,1.4958274587115738e-06,1.0,9.999999747378752e-05
0.5104451901035131,0.9382222294807434,1.3437030638669966e-06,1.0,9.999999747378752e-05
0.5101961498781986,0.9382222294807434,1.8317391350137767e-06,1.0,9.999999747378752e-05
0.5102499445527744,0.9382222294807434,1.770482062966039e-06,1.0,9.999999747378752e-05
0.5101354700807019,0.9386666417121887,1.3358514929677766e-06,1.0,9.999999747378752e-05
