val_loss,val_accuracy,loss,accuracy,lr
0.6897179007530212,0.3799999952316284,0.5133767813444138,0.7599999904632568,0.0010000000474974513
0.6950944423675537,0.41999998688697815,0.42226679921150206,0.7900000214576721,0.0010000000474974513
0.7411826491355896,0.41999998688697815,0.36380399763584137,0.8199999928474426,0.0010000000474974513
0.8149539232254028,0.41999998688697815,0.33060535192489626,0.8799999952316284,0.0010000000474974513
0.8781812310218811,0.41999998688697815,0.35954653173685075,0.8500000238418579,0.0010000000474974513
1.1561249494552612,0.41999998688697815,0.30855353772640226,0.8899999856948853,0.0010000000474974513
1.2769652366638184,0.41999998688697815,0.27334456592798234,0.8899999856948853,0.0010000000474974513
1.5207470893859862,0.41999998688697815,0.3258686915040016,0.8600000143051147,0.0010000000474974513
1.774092721939087,0.41999998688697815,0.3011867329478264,0.8799999952316284,0.0010000000474974513
1.8724552392959595,0.41999998688697815,0.25345284342765806,0.8999999761581421,0.0010000000474974513
2.17687451839447,0.41999998688697815,0.19831618070602416,0.9300000071525574,0.0010000000474974513
2.1606657028198244,0.41999998688697815,0.2083533525466919,0.9300000071525574,0.0010000000474974513
2.12564640045166,0.41999998688697815,0.18436518162488938,0.949999988079071,0.0010000000474974513
2.2349332332611085,0.41999998688697815,0.23951925560832024,0.9200000166893005,0.0010000000474974513
2.4926502227783205,0.41999998688697815,0.20512605495750905,0.949999988079071,0.0010000000474974513
2.668713927268982,0.41999998688697815,0.18062111958861352,0.9300000071525574,0.0010000000474974513
2.5934638500213625,0.41999998688697815,0.15215858891606332,0.9399999976158142,0.0010000000474974513
3.1635079383850098,0.41999998688697815,0.13712018802762033,0.9599999785423279,0.0010000000474974513
2.986355185508728,0.41999998688697815,0.14640899933874607,0.9399999976158142,0.0010000000474974513
3.0346391201019287,0.41999998688697815,0.12906757034361363,0.949999988079071,0.0010000000474974513
2.638987493515015,0.41999998688697815,0.203636434674263,0.9200000166893005,0.0010000000474974513
2.2594394207000734,0.41999998688697815,0.15770974904298782,0.949999988079071,0.0010000000474974513
2.784281611442566,0.41999998688697815,0.1634643029421568,0.9399999976158142,0.0010000000474974513
1.8981807708740235,0.41999998688697815,0.16925433091819286,0.9399999976158142,0.0010000000474974513
1.84813494682312,0.41999998688697815,0.14904811047017574,0.9300000071525574,0.0010000000474974513
2.1980896949768067,0.41999998688697815,0.13073403686285018,0.9700000286102295,0.0010000000474974513
1.466083550453186,0.41999998688697815,0.2454570084810257,0.9100000262260437,0.0010000000474974513
1.3181690216064452,0.41999998688697815,0.17519725002348424,0.9399999976158142,0.0010000000474974513
2.668535661697388,0.41999998688697815,0.23454665541648864,0.9200000166893005,0.0010000000474974513
2.954281783103943,0.41999998688697815,0.19856540635228156,0.9399999976158142,0.0010000000474974513
1.7958612442016602,0.41999998688697815,0.24835400953888892,0.8799999952316284,0.0010000000474974513
0.7274094521999359,0.6600000262260437,0.18808115422725677,0.9399999976158142,0.0010000000474974513
0.5959796011447906,0.7799999713897705,0.16000500693917274,0.9399999976158142,0.0010000000474974513
0.5936966359615325,0.7799999713897705,0.22132392972707748,0.9100000262260437,0.0010000000474974513
0.6433185458183288,0.7200000286102295,0.1428689021617174,0.949999988079071,0.0010000000474974513
0.6498783469200134,0.7200000286102295,0.09742752760648728,0.9700000286102295,0.0010000000474974513
0.7826618075370788,0.6600000262260437,0.12383408360183239,0.949999988079071,0.0010000000474974513
0.6422445058822632,0.7200000286102295,0.10461511481553316,0.9700000286102295,0.0010000000474974513
0.3941054463386536,0.8199999928474426,0.12799302786588668,0.9300000071525574,0.0010000000474974513
0.8302216291427612,0.6200000047683716,0.15399187207221984,0.9399999976158142,0.0010000000474974513
0.5793279081583023,0.800000011920929,0.128434781357646,0.9599999785423279,0.0010000000474974513
0.4362374484539032,0.8799999952316284,0.1068116333335638,0.9700000286102295,0.0010000000474974513
0.37598673105239866,0.8799999952316284,0.12587022315710783,0.949999988079071,0.0010000000474974513
0.3913376420736313,0.8199999928474426,0.14979117959737778,0.9300000071525574,0.0010000000474974513
0.49600393772125245,0.7799999713897705,0.1273295499384403,0.949999988079071,0.0010000000474974513
0.3879875294864178,0.9200000166893005,0.11135681755840779,0.949999988079071,0.0010000000474974513
0.36038394570350646,0.8199999928474426,0.12643998824059963,0.9599999785423279,0.0010000000474974513
0.4812909871339798,0.8399999737739563,0.08316473606973887,0.9800000190734863,0.0010000000474974513
0.3559283524751663,0.8399999737739563,0.08646394293755293,0.9800000190734863,0.0010000000474974513
0.35394972562789917,0.8600000143051147,0.07961793951690196,0.9800000190734863,0.0010000000474974513
0.3304398596286774,0.8600000143051147,0.06792658371850849,0.9700000286102295,0.0010000000474974513
0.41287759244441985,0.8799999952316284,0.07040620986372233,0.9800000190734863,0.0010000000474974513
0.5503566682338714,0.800000011920929,0.09028261993080378,0.949999988079071,0.0010000000474974513
0.3766578704118729,0.8399999737739563,0.06093298215419054,0.9900000095367432,0.0010000000474974513
0.3850600063800812,0.8399999737739563,0.07968468740582466,0.9800000190734863,0.0010000000474974513
0.5076556742191315,0.8199999928474426,0.05376217421144247,0.9900000095367432,0.0010000000474974513
0.35181620717048645,0.8399999737739563,0.049361889623105525,0.9900000095367432,0.0010000000474974513
0.44831239581108095,0.8999999761581421,0.042574210371822116,0.9900000095367432,0.0010000000474974513
0.6050775647163391,0.7799999713897705,0.07895588250830769,0.9700000286102295,0.0010000000474974513
0.377170130610466,0.8799999952316284,0.05556305227801204,0.9800000190734863,0.0010000000474974513
0.45559462904930115,0.8199999928474426,0.04740899046882987,0.9800000190734863,0.0010000000474974513
0.3671164959669113,0.8799999952316284,0.053829090856015685,0.9800000190734863,0.0010000000474974513
0.384205724298954,0.8999999761581421,0.04283757330849767,0.9900000095367432,0.0010000000474974513
1.580504262447357,0.6000000238418579,0.09320385679602623,0.9700000286102295,0.0010000000474974513
0.3984601438045502,0.9200000166893005,0.06451066946610809,0.9900000095367432,0.0010000000474974513
0.43738711476325987,0.8600000143051147,0.03931066747754812,1.0,0.0010000000474974513
0.6240083277225494,0.7799999713897705,0.04425742058083415,0.9900000095367432,0.0010000000474974513
0.3546313852071762,0.8799999952316284,0.03666935916990042,0.9900000095367432,0.0010000000474974513
0.35973197519779204,0.8600000143051147,0.031299475487321614,1.0,0.0010000000474974513
0.38842774629592897,0.8799999952316284,0.018188647646456956,1.0,0.0010000000474974513
0.37113717645406724,0.8999999761581421,0.013388029485940933,1.0,0.0010000000474974513
0.3647152245044708,0.8799999952316284,0.016437177709303797,1.0,0.0010000000474974513
0.6451185315847396,0.800000011920929,0.016452443785965443,1.0,0.0010000000474974513
0.3455516636371613,0.8600000143051147,0.017373555013909935,1.0,0.0010000000474974513
0.40010028183460233,0.8799999952316284,0.02047664890997112,1.0,0.0010000000474974513
0.40619286596775056,0.8799999952316284,0.02910169295500964,1.0,0.0010000000474974513
1.804908323287964,0.6800000071525574,0.05040328237228096,0.9900000095367432,0.0010000000474974513
0.6804412424564361,0.8199999928474426,0.09472156530246138,0.949999988079071,0.0010000000474974513
2.2139708757400514,0.6399999856948853,0.15223864652216434,0.9300000071525574,0.0010000000474974513
1.4784124195575714,0.6399999856948853,0.09518636390566826,0.9700000286102295,0.0010000000474974513
1.1331339120864867,0.6800000071525574,0.09546898119151592,0.9599999785423279,0.0010000000474974513
0.5226235315203667,0.8799999952316284,0.09388719983398915,0.9700000286102295,0.0010000000474974513
0.4185287535190582,0.8799999952316284,0.0807205818593502,0.9800000190734863,0.0010000000474974513
0.42988921999931334,0.8600000143051147,0.03909010998904705,0.9900000095367432,0.0010000000474974513
0.6130360126495361,0.8600000143051147,0.07865729150362313,0.9700000286102295,0.0010000000474974513
1.3221408009529114,0.7200000286102295,0.04370088810101151,0.9900000095367432,0.0010000000474974513
0.8379933536052704,0.7599999904632568,0.10920105380937457,0.9700000286102295,0.0010000000474974513
0.44463794827461245,0.8600000143051147,0.03528098706156015,1.0,0.0010000000474974513
0.42511693835258485,0.8799999952316284,0.02553038066253066,1.0,0.0010000000474974513
0.46585965156555176,0.8600000143051147,0.016177017404697836,1.0,0.0010000000474974513
0.44711953997612,0.8600000143051147,0.021236311411485076,1.0,0.0010000000474974513
0.41068622171878816,0.8600000143051147,0.010859452188014984,1.0,0.0010000000474974513
0.41724472045898436,0.8799999952316284,0.0433356111170724,0.9900000095367432,0.0010000000474974513
0.5041998445987701,0.8799999952316284,0.01890508085489273,1.0,0.0010000000474974513
0.3928997218608856,0.8799999952316284,0.025327983731403946,1.0,0.0010000000474974513
0.3607580304145813,0.8799999952316284,0.02065900438465178,1.0,0.0010000000474974513
0.4008238479495049,0.8799999952316284,0.009530926169827581,1.0,0.0010000000474974513
0.4411961227655411,0.8799999952316284,0.008723887638188899,1.0,0.0010000000474974513
0.4555354118347168,0.8600000143051147,0.008627577417064458,1.0,0.0010000000474974513
0.41934471726417544,0.8799999952316284,0.012364279222674667,1.0,0.0010000000474974513
0.8844806492328644,0.800000011920929,0.011113842856138945,1.0,0.0010000000474974513
0.6338796615600586,0.7799999713897705,0.013544748525600881,1.0,0.0010000000474974513
2.8676841020584107,0.6200000047683716,0.04473973487038165,0.9900000095367432,0.0010000000474974513
1.8472046375274658,0.5,0.034317726502195,1.0,0.0010000000474974513
2.8768110632896424,0.6000000238418579,0.09100563062820584,0.9599999785423279,0.0010000000474974513
0.42654836624860765,0.9399999976158142,0.09822149686515332,0.9700000286102295,0.0010000000474974513
0.5178938508033752,0.8999999761581421,0.03655866696499288,0.9900000095367432,0.0010000000474974513
0.7500293493270874,0.7400000095367432,0.035557201597839594,0.9900000095367432,0.0010000000474974513
0.37548950761556626,0.8999999761581421,0.03690259745344519,0.9900000095367432,0.0010000000474974513
0.44875686168670653,0.8600000143051147,0.017612161464057863,1.0,0.0010000000474974513
0.5087214887142182,0.8600000143051147,0.012302240799181163,1.0,0.0010000000474974513
0.4539582788944244,0.8600000143051147,0.009229350241366775,1.0,0.0010000000474974513
0.41549462676048277,0.8600000143051147,0.005953345960006118,1.0,0.0010000000474974513
0.4867368996143341,0.8600000143051147,0.008467679715249688,1.0,0.0010000000474974513
0.4447398617863655,0.8799999952316284,0.016044906806200743,1.0,0.0010000000474974513
0.4108434349298477,0.8600000143051147,0.007849463436286896,1.0,0.0010000000474974513
0.5824533224105835,0.8600000143051147,0.007147291419096291,1.0,0.0010000000474974513
0.4328615069389343,0.8799999952316284,0.011022932780906557,1.0,0.0010000000474974513
0.7617509186267852,0.800000011920929,0.01578428482171148,1.0,0.0010000000474974513
0.34736519753932954,0.8799999952316284,0.03512015487067401,0.9800000190734863,0.0010000000474974513
0.8371167987585068,0.7200000286102295,0.015219600009731948,1.0,0.0010000000474974513
0.7470820188522339,0.8600000143051147,0.008355559373740107,1.0,0.0010000000474974513
0.4841664552688599,0.8600000143051147,0.018563878594432027,1.0,0.0010000000474974513
0.8153635859489441,0.8199999928474426,0.01446751009207219,1.0,0.0010000000474974513
1.3102347612380982,0.6000000238418579,0.038270930061116815,0.9800000190734863,0.0010000000474974513
1.2604557782411576,0.7599999904632568,0.1917414355557412,0.9200000166893005,0.0010000000474974513
12.457670116424561,0.5799999833106995,0.16747234570793806,0.9399999976158142,0.0010000000474974513
1.9131287455558776,0.7400000095367432,0.23655294254422188,0.949999988079071,0.0010000000474974513
4.308681344985962,0.6000000238418579,0.24224313348531723,0.8700000047683716,0.0010000000474974513
0.9662354052066803,0.7599999904632568,0.14392159692943096,0.9399999976158142,0.0010000000474974513
1.047771754860878,0.7599999904632568,0.09196290224790574,0.9700000286102295,0.0010000000474974513
0.7346307396888733,0.8199999928474426,0.0400688910856843,0.9900000095367432,0.0010000000474974513
0.8375582456588745,0.7400000095367432,0.0735464514233172,0.9700000286102295,0.0010000000474974513
0.8535189807415009,0.7400000095367432,0.04520529033616185,0.9900000095367432,0.0010000000474974513
0.43517730236053465,0.8199999928474426,0.07107851207256317,0.9700000286102295,0.0010000000474974513
0.9362208485603333,0.7400000095367432,0.0486999798566103,0.9800000190734863,0.0010000000474974513
0.5874937295913696,0.8199999928474426,0.024898193869739772,1.0,0.0010000000474974513
0.4577730715274811,0.8600000143051147,0.07068573865108192,0.9800000190734863,0.0010000000474974513
0.4082438349723816,0.8399999737739563,0.02706682481803,0.9900000095367432,0.0010000000474974513
0.44294676184654236,0.8399999737739563,0.014982769917696714,1.0,0.0010000000474974513
0.4456145644187927,0.8399999737739563,0.006349954148754477,1.0,0.0010000000474974513
0.5147256195545197,0.8199999928474426,0.03624272218439728,0.9800000190734863,0.0010000000474974513
0.6471732676029205,0.800000011920929,0.010257806838490069,1.0,0.0010000000474974513
0.5228865385055542,0.8199999928474426,0.011072955894633196,1.0,0.0010000000474974513
0.508018571138382,0.8399999737739563,0.031254356226418166,1.0,0.0010000000474974513
0.516446566581726,0.8799999952316284,0.015900377370417117,1.0,0.0010000000474974513
0.5137881398200989,0.8399999737739563,0.04438953264034353,0.9900000095367432,0.0010000000474974513
0.7412515997886657,0.7799999713897705,0.019580919365398585,1.0,0.0010000000474974513
0.4407890200614929,0.8600000143051147,0.007164565700804815,1.0,0.0010000000474974513
0.41857026517391205,0.8600000143051147,0.012716150481719524,1.0,0.0010000000474974513
1.8314638257026672,0.5199999809265137,0.026390450511826202,0.9900000095367432,0.0010000000474974513
0.5169530928134918,0.8600000143051147,0.02398480281699449,1.0,0.0010000000474974513
0.46768270134925843,0.8799999952316284,0.029889659537002445,1.0,0.0010000000474974513
0.44955793023109436,0.8799999952316284,0.014310822321567685,1.0,0.0010000000474974513
0.48071092963218687,0.8799999952316284,0.006861548870801926,1.0,0.0010000000474974513
0.4183680087327957,0.8600000143051147,0.012192627880722284,1.0,0.0010000000474974513
0.3797799974679947,0.8799999952316284,0.0028286283137276768,1.0,0.0010000000474974513
0.38602257072925567,0.8799999952316284,0.004717705311486497,1.0,0.0010000000474974513
0.39154730141162875,0.8799999952316284,0.0035881927818991245,1.0,0.0010000000474974513
0.4178137302398682,0.8799999952316284,0.0028906592226121573,1.0,0.0010000000474974513
0.44480385184288024,0.8799999952316284,0.0027470768545754254,1.0,0.0010000000474974513
0.45122151374816893,0.8799999952316284,0.002622853755019605,1.0,0.0010000000474974513
0.43529212176799775,0.8600000143051147,0.003889316858840175,1.0,0.0010000000474974513
0.4209075927734375,0.8600000143051147,0.003048310609301552,1.0,0.0010000000474974513
0.5193097233772278,0.8600000143051147,0.002902006427757442,1.0,0.0010000000474974513
0.6552579671144485,0.800000011920929,0.034299842442851516,0.9800000190734863,0.0010000000474974513
0.794908094406128,0.8199999928474426,0.11817242223769427,0.949999988079071,0.0010000000474974513
4.2057411670684814,0.5799999833106995,0.12853158563375472,0.949999988079071,0.0010000000474974513
1.8782925486564637,0.7400000095367432,0.10168619519099593,0.9700000286102295,0.0010000000474974513
0.8085818618535996,0.800000011920929,0.059341052919626235,0.9800000190734863,0.0010000000474974513
0.3950874492526054,0.9200000166893005,0.04267438733950257,1.0,0.0010000000474974513
0.48754210472106935,0.8999999761581421,0.02003687829710543,1.0,0.0010000000474974513
0.4002652570605278,0.8999999761581421,0.019556172168813647,1.0,0.0010000000474974513
0.35958150029182434,0.8799999952316284,0.009731153585016727,1.0,0.0010000000474974513
0.37752951234579085,0.8799999952316284,0.004562456253916025,1.0,0.0010000000474974513
0.4092885315418243,0.8799999952316284,0.005734626238700002,1.0,0.0010000000474974513
0.45174100399017336,0.8799999952316284,0.015740124916192144,1.0,0.0010000000474974513
0.37492909133434293,0.8999999761581421,0.01306674680672586,1.0,0.0010000000474974513
0.5599318206310272,0.800000011920929,0.0051197476626839485,1.0,0.0010000000474974513
0.3835968792438507,0.8799999952316284,0.011156286718323827,1.0,0.0010000000474974513
0.4800147473812103,0.8799999952316284,0.01608644222142175,1.0,0.0010000000474974513
0.4686239629983902,0.8600000143051147,0.005410364281851798,1.0,0.0010000000474974513
0.47494166195392606,0.8799999952316284,0.009511110419407488,1.0,0.0010000000474974513
0.5432447493076324,0.8600000143051147,0.004415981762576848,1.0,0.0010000000474974513
0.49174280762672423,0.8799999952316284,0.008234205120243133,1.0,0.0010000000474974513
0.5187618672847748,0.8799999952316284,0.005831467031384818,1.0,0.0010000000474974513
0.6452430009841919,0.8399999737739563,0.0038164496450917794,1.0,0.0010000000474974513
0.5125187873840332,0.8799999952316284,0.00476691742951516,1.0,0.0010000000474974513
0.4548138350248337,0.8799999952316284,0.003233840444590896,1.0,0.0010000000474974513
0.5009706377983093,0.8799999952316284,0.012754350417526438,1.0,0.0010000000474974513
0.4747257918119431,0.8399999737739563,0.004811251445789822,1.0,0.0010000000474974513
0.4414677143096924,0.8600000143051147,0.006433885311707854,1.0,0.0010000000474974513
0.4245283275842667,0.8799999952316284,0.003346585825784132,1.0,0.0010000000474974513
0.6691967427730561,0.8399999737739563,0.006982893327949569,1.0,0.0010000000474974513
0.630838006734848,0.8600000143051147,0.014222477748990058,1.0,0.0010000000474974513
1.396975862979889,0.6800000071525574,0.024160248099360616,0.9900000095367432,0.0010000000474974513
3.641409921646118,0.5,0.10965904579497873,0.949999988079071,0.0010000000474974513
9.463661098480225,0.5799999833106995,0.0774886729195714,0.9900000095367432,0.0010000000474974513
0.4634815379977226,0.9200000166893005,0.1039315823931247,0.9599999785423279,0.0010000000474974513
15.342297172546386,0.5799999833106995,0.1309740485623479,0.9599999785423279,0.0010000000474974513
11.417118167877197,0.5799999833106995,0.11263051256537437,0.9300000071525574,0.0010000000474974513
1.6303600430488587,0.699999988079071,0.06635394878685474,0.9800000190734863,0.0010000000474974513
0.5749507158994674,0.8600000143051147,0.05269751213490963,0.9900000095367432,0.0010000000474974513
0.8168876945972443,0.800000011920929,0.05187785078305751,0.9800000190734863,0.0010000000474974513
0.6016419708728791,0.8199999928474426,0.022104038624092937,1.0,0.0010000000474974513
0.7381105333566665,0.7799999713897705,0.02832769826054573,0.9900000095367432,0.0010000000474974513
2.3868178844451906,0.4399999976158142,0.05413056081160903,0.9800000190734863,0.0010000000474974513
0.881326186656952,0.699999988079071,0.024624134134501218,1.0,0.0010000000474974513
0.44123193621635437,0.8600000143051147,0.026541165029630064,0.9900000095367432,0.0010000000474974513
0.6499204039573669,0.8399999737739563,0.017503653070889413,1.0,0.0010000000474974513
0.5636369526386261,0.8399999737739563,0.03725816280930303,0.9900000095367432,0.0010000000474974513
1.5432245254516601,0.5600000023841858,0.011323823139537125,1.0,0.0010000000474974513
0.7026354134082794,0.7599999904632568,0.02465617066482082,1.0,0.0005000000237487257
0.44283294677734375,0.8600000143051147,0.027269401936791837,0.9900000095367432,0.0005000000237487257
0.5163236737251282,0.8600000143051147,0.012809648492839188,1.0,0.0005000000237487257
0.5164865672588348,0.8799999952316284,0.03178998904768378,1.0,0.0005000000237487257
0.5007885515689849,0.8799999952316284,0.009109749138588086,1.0,0.0005000000237487257
0.46171688437461855,0.8600000143051147,0.011140414827968926,1.0,0.0005000000237487257
0.5030546694993973,0.8199999928474426,0.008190845954231918,1.0,0.0005000000237487257
0.49870988726615906,0.8600000143051147,0.007777724822517484,1.0,0.0005000000237487257
0.4911904036998749,0.8600000143051147,0.004423290130216628,1.0,0.0005000000237487257
0.48394232988357544,0.8600000143051147,0.0032121584110427646,1.0,0.0005000000237487257
0.42955643832683565,0.8600000143051147,0.008257390913786366,1.0,0.0005000000237487257
0.4074712485074997,0.8600000143051147,0.003063291235594079,1.0,0.0005000000237487257
0.41607669591903684,0.8600000143051147,0.0019078145967796444,1.0,0.0005000000237487257
0.4064511120319366,0.8600000143051147,0.0087515615276061,1.0,0.0005000000237487257
0.40095971524715424,0.8799999952316284,0.003962400858290494,1.0,0.0005000000237487257
0.5484531283378601,0.8600000143051147,0.022665610478725284,1.0,0.0005000000237487257
0.803656131029129,0.7799999713897705,0.008631510549457743,1.0,0.0005000000237487257
0.9672549962997437,0.7799999713897705,0.004913251177640632,1.0,0.0005000000237487257
0.8718744516372681,0.800000011920929,0.0015245944930939003,1.0,0.0005000000237487257
0.6843607664108277,0.8199999928474426,0.005620061419904232,1.0,0.0005000000237487257
0.5672977089881897,0.8399999737739563,0.00174217437452171,1.0,0.0005000000237487257
0.5358118772506714,0.8799999952316284,0.0017508369404822589,1.0,0.0005000000237487257
0.5253527998924256,0.8799999952316284,0.0018995534774148837,1.0,0.0005000000237487257
0.5220554828643799,0.8799999952316284,0.0020255736220860855,1.0,0.0005000000237487257
0.5231058418750762,0.8799999952316284,0.001049303513718769,1.0,0.0005000000237487257
0.5270965337753296,0.8799999952316284,0.001194104616297409,1.0,0.0005000000237487257
0.5251960456371307,0.8799999952316284,0.0009709531674161554,1.0,0.0005000000237487257
0.5164883315563202,0.8799999952316284,0.00227389978535939,1.0,0.0005000000237487257
0.545874947309494,0.8799999952316284,0.0040725742350332435,1.0,0.0005000000237487257
0.5541643023490905,0.8799999952316284,0.0018313452776055783,1.0,0.0005000000237487257
0.5747437834739685,0.8799999952316284,0.004871900580474176,1.0,0.0005000000237487257
0.5710093677043915,0.8799999952316284,0.0013590999675216152,1.0,0.0005000000237487257
0.5611926436424255,0.8799999952316284,0.0015778236564074177,1.0,0.0005000000237487257
0.5550712525844574,0.8799999952316284,0.0008578328444855288,1.0,0.0005000000237487257
0.5563893854618073,0.8799999952316284,0.0015695772017352283,1.0,0.0005000000237487257
0.5538406431674957,0.8799999952316284,0.0012030900164972992,1.0,0.0005000000237487257
0.5420431077480317,0.8799999952316284,0.0008293408260215074,1.0,0.0005000000237487257
0.5409781694412231,0.8799999952316284,0.0016681024833815172,1.0,0.0005000000237487257
0.5396069288253784,0.8799999952316284,0.0017307732836343349,1.0,0.0005000000237487257
0.547158831357956,0.8799999952316284,0.0011047653169953264,1.0,0.0005000000237487257
0.5610056400299073,0.8799999952316284,0.000998481153510511,1.0,0.0005000000237487257
0.5897124171257019,0.8799999952316284,0.0011136994959088042,1.0,0.0005000000237487257
0.6091737747192383,0.8799999952316284,0.0009300724559579976,1.0,0.0005000000237487257
0.6122804343700409,0.8799999952316284,0.0006603085319511592,1.0,0.0005000000237487257
0.5967772722244262,0.8799999952316284,0.0007999540568562225,1.0,0.0005000000237487257
0.592737203836441,0.8799999952316284,0.0007441142668540123,1.0,0.0005000000237487257
0.5921188592910767,0.8799999952316284,0.0006026935050613246,1.0,0.0005000000237487257
0.5939017415046692,0.8799999952316284,0.001216502918396145,1.0,0.0005000000237487257
0.6372969210147857,0.8600000143051147,0.0023596075334353372,1.0,0.0005000000237487257
0.6541581571102142,0.8600000143051147,0.000891613238491118,1.0,0.0005000000237487257
0.6255035638809204,0.8600000143051147,0.003097597320447676,1.0,0.0005000000237487257
0.6636438608169556,0.8399999737739563,0.00578705496591283,1.0,0.0005000000237487257
0.6728312849998475,0.8600000143051147,0.0023718038777587936,1.0,0.0005000000237487257
0.6601735472679138,0.8600000143051147,0.0009070610249182209,1.0,0.0005000000237487257
0.6429521918296814,0.8399999737739563,0.0027663985201797914,1.0,0.0005000000237487257
0.6422478437423706,0.8399999737739563,0.002518407441675663,1.0,0.0005000000237487257
0.6094371318817139,0.8399999737739563,0.0011322686812491156,1.0,0.0005000000237487257
0.5851433098316192,0.8799999952316284,0.0018698467581998556,1.0,0.0005000000237487257
0.5757018387317657,0.8799999952316284,0.0023296139581361784,1.0,0.0005000000237487257
0.5807896673679351,0.8799999952316284,0.0005321624848875217,1.0,0.0005000000237487257
0.6044615983963013,0.8799999952316284,0.0013173323386581615,1.0,0.0005000000237487257
0.6191748023033142,0.8799999952316284,0.0006769321815227158,1.0,0.0005000000237487257
0.6346167802810669,0.8600000143051147,0.0011289295885944738,1.0,0.0005000000237487257
0.6386897087097168,0.8600000143051147,0.000916346744634211,1.0,0.0005000000237487257
0.6533675193786621,0.8399999737739563,0.0029174176204833204,1.0,0.0005000000237487257
0.606919401884079,0.8600000143051147,0.00175497873860877,1.0,0.0005000000237487257
0.576701158285141,0.8799999952316284,0.0017519777378765867,1.0,0.0005000000237487257
0.5700672447681427,0.8799999952316284,0.0012253460314241237,1.0,0.0005000000237487257
0.5834377229213714,0.8799999952316284,0.0007853427858208306,1.0,0.0005000000237487257
0.6071442484855651,0.8600000143051147,0.0028116539586335422,1.0,0.0005000000237487257
0.6605129420757294,0.8399999737739563,0.0011023190774722025,1.0,0.0005000000237487257
0.6573305010795594,0.8399999737739563,0.0007614246656885371,1.0,0.0005000000237487257
0.6519468188285827,0.8399999737739563,0.0004770567604282405,1.0,0.0005000000237487257
0.6407193899154663,0.8399999737739563,0.000821580296906177,1.0,0.0005000000237487257
0.6318442165851593,0.8600000143051147,0.0010862656105018686,1.0,0.0005000000237487257
0.9684561192989349,0.8199999928474426,0.006604057484946679,1.0,0.0005000000237487257
1.09556303024292,0.800000011920929,0.0027377052290830763,1.0,0.0005000000237487257
1.033719038963318,0.800000011920929,0.0009062658951734193,1.0,0.0005000000237487257
0.9309671223163605,0.800000011920929,0.0015884460444794968,1.0,0.0005000000237487257
0.8050349354743958,0.8399999737739563,0.0011808382871095092,1.0,0.0005000000237487257
0.7303951263427735,0.8399999737739563,0.0008936345635447651,1.0,0.0005000000237487257
0.6491232454776764,0.8399999737739563,0.0014027938115759753,1.0,0.0005000000237487257
0.6055061280727386,0.8600000143051147,0.001619490706070792,1.0,0.0005000000237487257
0.5841620683670044,0.8799999952316284,0.0013179544330341741,1.0,0.0005000000237487257
0.601152628660202,0.8799999952316284,0.0015203005823423155,1.0,0.0005000000237487257
0.6206309080123902,0.8600000143051147,0.0003433404606766999,1.0,0.0005000000237487257
0.6317194700241089,0.8600000143051147,0.0007058273578877561,1.0,0.0005000000237487257
0.657658189535141,0.8600000143051147,0.0005093953463074285,1.0,0.0005000000237487257
0.6648820161819458,0.8600000143051147,0.0005864634549652692,1.0,0.0005000000237487257
0.6143012404441833,0.8799999952316284,0.002103398320468841,1.0,0.0005000000237487257
0.5896039009094238,0.8799999952316284,0.0010021390109614004,1.0,0.0005000000237487257
0.6014183819293976,0.8799999952316284,0.0008442681020824239,1.0,0.0005000000237487257
0.619660758972168,0.8799999952316284,0.00039733267767587676,1.0,0.0005000000237487257
0.6522557139396667,0.8600000143051147,0.0009622422032407485,1.0,0.0005000000237487257
0.6981600522994995,0.8600000143051147,0.0009234337165253236,1.0,0.0005000000237487257
0.7352328538894654,0.8600000143051147,0.0005627049467875622,1.0,0.0005000000237487257
0.7409897565841674,0.8600000143051147,0.0007287213120434899,1.0,0.0005000000237487257
0.7272417545318604,0.8600000143051147,0.0006945281333173625,1.0,0.0005000000237487257
0.7056214809417725,0.8600000143051147,0.0006320178756141104,1.0,0.0005000000237487257
0.8173659443855286,0.8399999737739563,0.0018639337315107696,1.0,0.0005000000237487257
0.8321357607841492,0.8399999737739563,0.0006207618651387747,1.0,0.0005000000237487257
0.8093664526939393,0.8399999737739563,0.000332054676982807,1.0,0.0005000000237487257
0.7696714878082276,0.8399999737739563,0.0005973003128019628,1.0,0.0005000000237487257
0.7459744453430176,0.8399999737739563,0.0003543613900546916,1.0,0.0005000000237487257
0.5567543745040894,0.8799999952316284,0.003183702935348265,1.0,0.0005000000237487257
0.5362905502319336,0.8799999952316284,0.0012676346887019463,1.0,0.0005000000237487257
0.6196730494499206,0.8799999952316284,0.0018740581392194145,1.0,0.0005000000237487257
0.7168662786483765,0.8600000143051147,0.0006710367480991409,1.0,0.0005000000237487257
0.7636659860610961,0.8399999737739563,0.00038790335529483857,1.0,0.0005000000237487257
0.7567014694213867,0.8399999737739563,0.00039271164278034123,1.0,0.0005000000237487257
0.7401516437530518,0.8399999737739563,0.0003871148652251577,1.0,0.0005000000237487257
0.7089366495609284,0.8600000143051147,0.0009410956175997853,1.0,0.0005000000237487257
0.6715680956840515,0.8600000143051147,0.0003098769644566346,1.0,0.0005000000237487257
0.6600863933563232,0.8600000143051147,0.0014815268543316052,1.0,0.0005000000237487257
0.6541485726833344,0.8600000143051147,0.0003776675192057155,1.0,0.0005000000237487257
0.6417181253433227,0.8600000143051147,0.0006225678225746378,1.0,0.0005000000237487257
0.6382939398288727,0.8600000143051147,0.00033975543701672,1.0,0.0005000000237487257
0.6527738928794861,0.8600000143051147,0.0007738024251011666,1.0,0.0005000000237487257
0.6725791990756989,0.8600000143051147,0.0006450948712881655,1.0,0.0005000000237487257
0.6881880760192871,0.8600000143051147,0.0003702683745359536,1.0,0.0005000000237487257
0.6999150037765502,0.8600000143051147,0.0005434388665889855,1.0,0.0005000000237487257
0.7115219712257386,0.8600000143051147,0.000777835108601721,1.0,0.0005000000237487257
0.7166614890098572,0.8600000143051147,0.0005460128057166002,1.0,0.0005000000237487257
0.7202619194984436,0.8600000143051147,0.00031821214288356713,1.0,0.0005000000237487257
0.7228873491287231,0.8600000143051147,0.0007404355634207605,1.0,0.0005000000237487257
0.7218885242938995,0.8600000143051147,0.0009016593234264292,1.0,0.0005000000237487257
0.7291593790054322,0.8600000143051147,0.0003056936686334666,1.0,0.0005000000237487257
0.7207789301872254,0.8600000143051147,0.0003718035397469066,1.0,0.0005000000237487257
0.7097024321556091,0.8600000143051147,0.00044007062460877934,1.0,0.0005000000237487257
0.6865827739238739,0.8600000143051147,0.0010297082379111088,1.0,0.0005000000237487257
0.6929797947406768,0.8600000143051147,0.00033408621020498687,1.0,0.0005000000237487257
0.6983549773693085,0.8600000143051147,0.00036530029610730707,1.0,0.0005000000237487257
0.7012755513191223,0.8600000143051147,0.00022712662430421915,1.0,0.0005000000237487257
0.7296172261238099,0.8600000143051147,0.0010669874085579068,1.0,0.0005000000237487257
0.7524039626121521,0.8600000143051147,0.00039513223746325823,1.0,0.0005000000237487257
0.7549076318740845,0.8600000143051147,0.0008154562761774287,1.0,0.0005000000237487257
0.7557284593582153,0.8600000143051147,0.00017602910229470582,1.0,0.0005000000237487257
0.7720694184303284,0.8399999737739563,0.001421830934123136,1.0,0.0005000000237487257
0.8291282057762146,0.8399999737739563,0.000857949551573256,1.0,0.0005000000237487257
0.8160922169685364,0.8399999737739563,0.0015395394126244354,1.0,0.0005000000237487257
0.7450432896614074,0.8399999737739563,0.0003544939041603357,1.0,0.0005000000237487257
0.7187663912773132,0.8399999737739563,0.0006080022747482871,1.0,0.0005000000237487257
0.7093597531318665,0.8600000143051147,0.0003454449648415903,1.0,0.0005000000237487257
0.7178314208984375,0.8600000143051147,0.000443618131976109,1.0,0.0005000000237487257
0.7223207354545593,0.8600000143051147,0.00023717294534435495,1.0,0.0005000000237487257
0.729176664352417,0.8600000143051147,0.0003018405670445645,1.0,0.0005000000237487257
0.73097163438797,0.8600000143051147,0.0004951220449584071,1.0,0.0005000000237487257
0.73526930809021,0.8600000143051147,0.000376240170589881,1.0,0.0005000000237487257
0.7640663981437683,0.8600000143051147,0.0031842367789067794,1.0,0.0005000000237487257
0.8449845910072327,0.8399999737739563,0.002788082703773398,1.0,0.0005000000237487257
1.2783474922180176,0.800000011920929,0.0002786430704873055,1.0,0.0005000000237487257
1.1962729096412659,0.800000011920929,0.001106886925845174,1.0,0.0005000000237487257
0.7820167183876038,0.8399999737739563,0.0022093801700975744,1.0,0.0005000000237487257
0.6257097542285919,0.8600000143051147,0.0004207116497127572,1.0,0.0005000000237487257
0.5965096056461334,0.8799999952316284,0.0005055489782535005,1.0,0.0005000000237487257
0.6074920892715454,0.8799999952316284,0.0006795061177399475,1.0,0.0005000000237487257
0.6079478740692139,0.8799999952316284,0.0004022584827907849,1.0,0.0005000000237487257
0.6247224807739258,0.8799999952316284,0.0005713369944714941,1.0,0.0005000000237487257
0.6678116500377655,0.8600000143051147,0.0007214695800939807,1.0,0.0005000000237487257
0.7201081037521362,0.8600000143051147,0.00020480223174672573,1.0,0.0005000000237487257
0.7140099048614502,0.8600000143051147,0.00043840110884048046,1.0,0.0005000000237487257
0.7075700223445892,0.8600000143051147,0.0004849582852330059,1.0,0.0005000000237487257
0.7035565257072449,0.8600000143051147,0.00038209720732993444,1.0,0.0005000000237487257
0.7109907746315003,0.8600000143051147,0.0002386852400377393,1.0,0.0005000000237487257
0.7183265328407288,0.8600000143051147,0.0005635426758090034,1.0,0.0005000000237487257
0.7351719856262207,0.8600000143051147,0.0003009957683389075,1.0,0.0005000000237487257
1.0007290959358215,0.800000011920929,0.018923271548555932,0.9900000095367432,0.0005000000237487257
1.938136911392212,0.7400000095367432,0.0835685140104033,0.9700000286102295,0.0005000000237487257
1.2909030005335809,0.800000011920929,0.1057126454077661,0.9599999785423279,0.0005000000237487257
0.8459686040878296,0.800000011920929,0.07300444087013602,0.9700000286102295,0.0005000000237487257
0.8763578951358795,0.7799999713897705,0.05254919268190861,0.9900000095367432,0.0005000000237487257
0.3940496027469635,0.8600000143051147,0.04273342113010585,0.9800000190734863,0.0005000000237487257
1.0989223688840866,0.800000011920929,0.03131189837586135,1.0,0.0005000000237487257
1.3225710093975067,0.800000011920929,0.028297758067492396,1.0,0.0005000000237487257
0.5552858352661133,0.8799999952316284,0.019778491574106737,0.9900000095367432,0.0005000000237487257
0.6681720748543739,0.8399999737739563,0.004039616044610739,1.0,0.0005000000237487257
0.6688442677259445,0.8199999928474426,0.0043506026559043676,1.0,0.0005000000237487257
0.5415400683879852,0.8600000143051147,0.00463932266284246,1.0,0.0005000000237487257
0.5309379637241364,0.8600000143051147,0.0020735641533974557,1.0,0.0005000000237487257
0.5092690080404282,0.8999999761581421,0.009484985074959696,0.9900000095367432,0.0005000000237487257
0.6623892247676849,0.8199999928474426,0.005209383869078011,1.0,0.0005000000237487257
0.5351451352238655,0.8600000143051147,0.002326861850451678,1.0,0.0005000000237487257
0.43363072648644446,0.8799999952316284,0.00521177530172281,1.0,0.0005000000237487257
0.3852815210819244,0.8999999761581421,0.00516018730122596,1.0,0.0002500000118743628
0.4066638082265854,0.8799999952316284,0.001695449129329063,1.0,0.0002500000118743628
0.4479807585477829,0.8799999952316284,0.00286285406909883,1.0,0.0002500000118743628
0.47897703051567075,0.8799999952316284,0.000642651103407843,1.0,0.0002500000118743628
0.4930784672498703,0.8799999952316284,0.00066431332816137,1.0,0.0002500000118743628
0.5206340074539184,0.8799999952316284,0.0022591581990127453,1.0,0.0002500000118743628
0.5258895456790924,0.8799999952316284,0.0011242282809689641,1.0,0.0002500000118743628
0.52885822057724,0.8799999952316284,0.0010278397123329342,1.0,0.0002500000118743628
0.5459698975086212,0.8799999952316284,0.0018399554974166676,1.0,0.0002500000118743628
0.5546994924545288,0.8799999952316284,0.0026220657884550745,1.0,0.0002500000118743628
0.5181982159614563,0.8799999952316284,0.0011055847018724308,1.0,0.0002500000118743628
0.5172097206115722,0.8799999952316284,0.0005806209708680398,1.0,0.0002500000118743628
0.5302092224359513,0.8799999952316284,0.0006362660424201749,1.0,0.0002500000118743628
0.5476238012313843,0.8799999952316284,0.0018135298130800947,1.0,0.0002500000118743628
0.5735580921173096,0.8799999952316284,0.0019365402811672538,1.0,0.0002500000118743628
0.5855941534042358,0.8799999952316284,0.002360317754209973,1.0,0.0002500000118743628
0.6201585412025452,0.8799999952316284,0.002917651057941839,1.0,0.0002500000118743628
0.6086521565914154,0.8799999952316284,0.0009661660471465439,1.0,0.0002500000118743628
0.6181579768657685,0.8799999952316284,0.0014237465933547356,1.0,0.0002500000118743628
0.6126105844974518,0.8799999952316284,0.0008344825459062122,1.0,0.0002500000118743628
0.5998464345932006,0.8799999952316284,0.0007389380312815774,1.0,0.0002500000118743628
0.5972704470157624,0.8799999952316284,0.0007206874492112547,1.0,0.0002500000118743628
0.6066119730472564,0.8799999952316284,0.0004669180969358422,1.0,0.0002500000118743628
0.6121879637241363,0.8799999952316284,0.0006358921033097431,1.0,0.0002500000118743628
0.6210043847560882,0.8799999952316284,0.0008921360044041648,1.0,0.0002500000118743628
0.6274948120117188,0.8799999952316284,0.0005119400462717749,1.0,0.0002500000118743628
0.6268020749092102,0.8799999952316284,0.000738059266586788,1.0,0.0002500000118743628
0.6645445466041565,0.8799999952316284,0.005574654774682131,1.0,0.0002500000118743628
0.7239587485790253,0.8799999952316284,0.0011040240598958917,1.0,0.0002500000118743628
0.7120498836040496,0.8799999952316284,0.002890471331193112,1.0,0.0002500000118743628
0.6913413047790528,0.8600000143051147,0.0034049493522616105,1.0,0.0002500000118743628
0.6738067746162415,0.8600000143051147,0.0005214576303842478,1.0,0.0002500000118743628
0.6611337721347809,0.8600000143051147,0.0011585263229790144,1.0,0.0002500000118743628
0.6449856996536255,0.8600000143051147,0.0010815637528139633,1.0,0.0002500000118743628
0.6423988103866577,0.8600000143051147,0.001048635208280757,1.0,0.0002500000118743628
0.6432507336139679,0.8600000143051147,0.0012760409197653643,1.0,0.0002500000118743628
0.6368584394454956,0.8799999952316284,0.001149391352373641,1.0,0.0002500000118743628
0.6377071142196655,0.8799999952316284,0.0005808118163258769,1.0,0.0002500000118743628
0.6348897516727448,0.8799999952316284,0.001312791784584988,1.0,0.0002500000118743628
0.6406438767910003,0.8799999952316284,0.0008229240906075574,1.0,0.0002500000118743628
0.654294753074646,0.8799999952316284,0.0009304212217102759,1.0,0.0002500000118743628
0.6659589529037475,0.8799999952316284,0.0005593950001639314,1.0,0.0002500000118743628
0.668142956495285,0.8799999952316284,0.000593792533618398,1.0,0.0002500000118743628
0.666846114397049,0.8600000143051147,0.0010670156654668972,1.0,0.0002500000118743628
0.6697380065917968,0.8600000143051147,0.001634048113191966,1.0,0.0002500000118743628
0.6851357161998749,0.8600000143051147,0.00021829337856615894,1.0,0.0002500000118743628
0.6916183650493621,0.8799999952316284,0.000872695105499588,1.0,0.0002500000118743628
0.6945287108421325,0.8799999952316284,0.0005749651791120414,1.0,0.0002500000118743628
0.7000275492668152,0.8600000143051147,0.0008867566808476113,1.0,0.0002500000118743628
0.6947843909263611,0.8799999952316284,0.00161763016221812,1.0,0.0002500000118743628
0.6902115345001221,0.8799999952316284,0.0005986551641399274,1.0,0.0001250000059371814
0.6937914311885833,0.8799999952316284,0.0010437131684739142,1.0,0.0001250000059371814
0.6975774824619293,0.8799999952316284,0.0004992588852474,1.0,0.0001250000059371814
0.6992640733718872,0.8799999952316284,0.0007842122817237396,1.0,0.0001250000059371814
0.7006879150867462,0.8799999952316284,0.0011097036753199064,1.0,0.0001250000059371814
0.6950272798538208,0.8799999952316284,0.00040309786490979607,1.0,0.0001250000059371814
0.6931680500507355,0.8799999952316284,0.0010124506035936065,1.0,0.0001250000059371814
0.6930717825889587,0.8799999952316284,0.0006362066662404687,1.0,0.0001250000059371814
0.6960372805595398,0.8799999952316284,0.001450054542874568,1.0,0.0001250000059371814
0.6974770486354828,0.8799999952316284,0.00035083106777165083,1.0,0.0001250000059371814
0.7084185063838959,0.8600000143051147,0.001270343673240859,1.0,0.0001250000059371814
0.708512008190155,0.8600000143051147,0.0012467502085200977,1.0,0.0001250000059371814
0.7138528764247895,0.8600000143051147,0.002545082000142429,1.0,0.0001250000059371814
0.719813096523285,0.8600000143051147,0.0005069611710496247,1.0,0.0001250000059371814
0.7151475429534913,0.8600000143051147,0.0003349645143316593,1.0,0.0001250000059371814
0.7093151330947876,0.8600000143051147,0.0003322985663544387,1.0,0.0001250000059371814
0.7084836602210999,0.8600000143051147,0.0006741722179867792,1.0,0.0001250000059371814
0.7157053470611572,0.8600000143051147,0.0015890725524513982,1.0,0.0001250000059371814
0.7201813578605651,0.8600000143051147,0.0005035703958128579,1.0,0.0001250000059371814
0.6992855966091156,0.8600000143051147,0.0022278997697867454,1.0,0.0001250000059371814
0.6707023680210114,0.8799999952316284,0.0005136016676260624,1.0,0.0001250000059371814
0.6638177990913391,0.8799999952316284,0.0004008246112789493,1.0,0.0001250000059371814
0.6662761449813843,0.8799999952316284,0.0009492918594332878,1.0,0.0001250000059371814
0.6687754571437836,0.8799999952316284,0.001144044399552513,1.0,0.0001250000059371814
0.6666489839553833,0.8799999952316284,0.0005348829450667836,1.0,0.0001250000059371814
0.6668491005897522,0.8799999952316284,0.00036081721846130675,1.0,0.0001250000059371814
0.6665158629417419,0.8799999952316284,0.00023424336104653775,1.0,0.0001250000059371814
0.6669242024421692,0.8799999952316284,0.0004147769541305024,1.0,0.0001250000059371814
0.6884545266628266,0.8600000143051147,0.00201639246661216,1.0,0.0001250000059371814
0.692148995399475,0.8600000143051147,0.0004905838752165437,1.0,0.0001250000059371814
0.6961977124214173,0.8600000143051147,0.0005855735889781499,1.0,0.0001250000059371814
0.7081468641757965,0.8600000143051147,0.0008446133477264083,1.0,0.0001250000059371814
0.7181182265281677,0.8600000143051147,0.0006975997515837662,1.0,0.0001250000059371814
0.7188681364059448,0.8600000143051147,0.0005210625029576476,1.0,0.0001250000059371814
0.743600594997406,0.8600000143051147,0.001162780948652653,1.0,0.0001250000059371814
0.7578937530517578,0.8600000143051147,0.0007592179790663067,1.0,0.0001250000059371814
0.7614915490150451,0.8600000143051147,0.000397542384598637,1.0,0.0001250000059371814
0.7580409407615661,0.8600000143051147,0.0008170807908754796,1.0,0.0001250000059371814
0.7450708389282227,0.8600000143051147,0.0021277845313306897,1.0,0.0001250000059371814
0.727447235584259,0.8799999952316284,0.00045539638740592635,1.0,0.0001250000059371814
0.720965975522995,0.8799999952316284,0.0002620897663291544,1.0,0.0001250000059371814
0.7179108500480652,0.8799999952316284,0.0003027868915523868,1.0,0.0001250000059371814
0.7213661551475525,0.8799999952316284,0.0015799897046235856,1.0,0.0001250000059371814
0.7284709811210632,0.8600000143051147,0.0007579926314065233,1.0,0.0001250000059371814
0.727909517288208,0.8600000143051147,0.0013839138715411536,1.0,0.0001250000059371814
0.7404455065727233,0.8600000143051147,0.0006322926237771753,1.0,0.0001250000059371814
0.7384382963180542,0.8600000143051147,0.0003697765794640873,1.0,0.0001250000059371814
0.7298568248748779,0.8600000143051147,0.00035872359076165593,1.0,0.0001250000059371814
0.7258272767066956,0.8600000143051147,0.0005454356636619195,1.0,0.0001250000059371814
0.7213898241519928,0.8600000143051147,0.000550013854081044,1.0,0.0001250000059371814
0.7182747840881347,0.8600000143051147,0.00027790132444351914,1.0,9.999999747378752e-05
0.7248901665210724,0.8600000143051147,0.0008857898617861792,1.0,9.999999747378752e-05
0.7302542686462402,0.8600000143051147,0.0012679604333243333,1.0,9.999999747378752e-05
0.7290627419948578,0.8600000143051147,0.0007304486833163537,1.0,9.999999747378752e-05
0.7227477312088013,0.8600000143051147,0.0009999485344451386,1.0,9.999999747378752e-05
0.7200945377349853,0.8600000143051147,0.00204126494427328,1.0,9.999999747378752e-05
0.739724600315094,0.8600000143051147,0.005420223323744722,1.0,9.999999747378752e-05
0.7532626867294312,0.8600000143051147,0.000524129459518008,1.0,9.999999747378752e-05
0.7525161027908325,0.8600000143051147,0.000483690200780984,1.0,9.999999747378752e-05
0.750720489025116,0.8600000143051147,0.000488955175387673,1.0,9.999999747378752e-05
0.7490813136100769,0.8600000143051147,0.00035629240301204845,1.0,9.999999747378752e-05
0.7486997604370117,0.8600000143051147,0.00046143307772581463,1.0,9.999999747378752e-05
0.7445409178733826,0.8600000143051147,0.0004324064371758141,1.0,9.999999747378752e-05
0.734451425075531,0.8799999952316284,0.0007088785867381375,1.0,9.999999747378752e-05
0.7311735928058625,0.8799999952316284,0.00047814598729019054,1.0,9.999999747378752e-05
0.7308413803577423,0.8799999952316284,0.0004734083697258029,1.0,9.999999747378752e-05
0.7215640187263489,0.8799999952316284,0.0008137868018820882,1.0,9.999999747378752e-05
0.7108856260776519,0.8799999952316284,0.0013923440303187818,1.0,9.999999747378752e-05
0.7074759364128113,0.8799999952316284,0.0008151360852934886,1.0,9.999999747378752e-05
0.7079292178153992,0.8799999952316284,0.00033762574239517564,1.0,9.999999747378752e-05
0.7087865769863129,0.8799999952316284,0.00043260535458102824,1.0,9.999999747378752e-05
0.7116609334945678,0.8799999952316284,0.00022680447073071265,1.0,9.999999747378752e-05
0.7163596749305725,0.8799999952316284,0.00045868946799600965,1.0,9.999999747378752e-05
0.7203388571739197,0.8600000143051147,0.0003507974550302606,1.0,9.999999747378752e-05
0.7261881828308105,0.8600000143051147,0.0005702358510461635,1.0,9.999999747378752e-05
0.7330236554145813,0.8600000143051147,0.0006025240476446925,1.0,9.999999747378752e-05
0.7343237519264221,0.8600000143051147,0.0006585339935554658,1.0,9.999999747378752e-05
0.7362889468669891,0.8600000143051147,0.0005240299451543251,1.0,9.999999747378752e-05
0.7301186323165894,0.8799999952316284,0.002421950682764873,1.0,9.999999747378752e-05
0.7204622089862823,0.8799999952316284,0.0004414156726852525,1.0,9.999999747378752e-05
0.7175339162349701,0.8799999952316284,0.00041984186391346156,1.0,9.999999747378752e-05
0.7192468225955964,0.8799999952316284,0.00045386751589830964,1.0,9.999999747378752e-05
0.7281232595443725,0.8799999952316284,0.0012444108731870073,1.0,9.999999747378752e-05
0.7349526941776275,0.8799999952316284,0.0005202406980970408,1.0,9.999999747378752e-05
0.738709008693695,0.8600000143051147,0.00035333120395080185,1.0,9.999999747378752e-05
0.7403340816497803,0.8600000143051147,0.0004408719079947332,1.0,9.999999747378752e-05
0.746481204032898,0.8600000143051147,0.0004179563002253417,1.0,9.999999747378752e-05
0.7514813780784607,0.8600000143051147,0.00037538858887273816,1.0,9.999999747378752e-05
0.7516253590583801,0.8600000143051147,0.0006837433917098679,1.0,9.999999747378752e-05
0.7486318588256836,0.8600000143051147,0.00022695456209476106,1.0,9.999999747378752e-05
0.7487078309059143,0.8600000143051147,0.00022936468667467125,1.0,9.999999747378752e-05
0.7474229216575623,0.8600000143051147,0.0007432192513078916,1.0,9.999999747378752e-05
0.7375724613666534,0.8600000143051147,0.0005172894925635774,1.0,9.999999747378752e-05
0.7625651240348816,0.8600000143051147,0.0039005963975796477,1.0,9.999999747378752e-05
0.7966575145721435,0.8600000143051147,0.0004635902245354373,1.0,9.999999747378752e-05
0.8039159893989563,0.8600000143051147,0.0004900714047835208,1.0,9.999999747378752e-05
0.8000062584877015,0.8600000143051147,0.0006826096112490631,1.0,9.999999747378752e-05
0.783580732345581,0.8600000143051147,0.0002041294821538031,1.0,9.999999747378752e-05
0.770794951915741,0.8600000143051147,0.000325190801959252,1.0,9.999999747378752e-05
0.7644700288772583,0.8600000143051147,0.0014409567600523587,1.0,9.999999747378752e-05
0.7676816940307617,0.8600000143051147,0.0013747765784501097,1.0,9.999999747378752e-05
0.762705397605896,0.8600000143051147,0.0004618274062522687,1.0,9.999999747378752e-05
0.7822585940361023,0.8600000143051147,0.001120530100160977,1.0,9.999999747378752e-05
0.7752593040466309,0.8600000143051147,0.00033127682181657294,1.0,9.999999747378752e-05
0.7693596005439758,0.8600000143051147,0.0006399750956916251,1.0,9.999999747378752e-05
0.7441134691238404,0.8799999952316284,0.0014875213979394174,1.0,9.999999747378752e-05
0.7517827987670899,0.8600000143051147,0.0008652551005070563,1.0,9.999999747378752e-05
0.7604375123977661,0.8600000143051147,0.00019162400785717183,1.0,9.999999747378752e-05
0.7586501717567444,0.8600000143051147,0.00022084978445491288,1.0,9.999999747378752e-05
0.7576940536499024,0.8600000143051147,0.00022484473229269497,1.0,9.999999747378752e-05
0.7577455043792725,0.8600000143051147,0.00025600414810469376,1.0,9.999999747378752e-05
0.7617985486984253,0.8799999952316284,0.002212141055497341,1.0,9.999999747378752e-05
0.7637493968009949,0.8799999952316284,0.00024085443801595828,1.0,9.999999747378752e-05
0.7651443600654602,0.8799999952316284,0.0013898870041884948,1.0,9.999999747378752e-05
0.7533907294273376,0.8799999952316284,0.000663199161135708,1.0,9.999999747378752e-05
0.7488895893096924,0.8799999952316284,0.00033607524892431684,1.0,9.999999747378752e-05
0.750832736492157,0.8799999952316284,0.000590769930568058,1.0,9.999999747378752e-05
0.7441554844379425,0.8799999952316284,0.0004611471835232805,1.0,9.999999747378752e-05
0.7503557622432708,0.8799999952316284,0.0005166122064110823,1.0,9.999999747378752e-05
0.7567624807357788,0.8799999952316284,0.0003716849292686675,1.0,9.999999747378752e-05
0.7581656098365783,0.8799999952316284,0.00022729634001734668,1.0,9.999999747378752e-05
0.7587301373481751,0.8600000143051147,0.0010996009201335254,1.0,9.999999747378752e-05
0.7570831418037415,0.8600000143051147,0.0003153009332891088,1.0,9.999999747378752e-05
0.7561945438385009,0.8799999952316284,0.0005061890617071186,1.0,9.999999747378752e-05
0.7560881018638611,0.8799999952316284,0.0003309913685370702,1.0,9.999999747378752e-05
0.7613766074180603,0.8799999952316284,0.0004624137069185963,1.0,9.999999747378752e-05
0.7634404182434082,0.8799999952316284,0.0002992944850120693,1.0,9.999999747378752e-05
0.7683917760849,0.8799999952316284,0.0007541369406681043,1.0,9.999999747378752e-05
0.7739539623260498,0.8600000143051147,0.00012946234419359827,1.0,9.999999747378752e-05
0.778834068775177,0.8600000143051147,0.0005846589447173756,1.0,9.999999747378752e-05
0.7690363049507141,0.8799999952316284,0.000993994092277717,1.0,9.999999747378752e-05
0.7569693028926849,0.8799999952316284,0.0002925479908299167,1.0,9.999999747378752e-05
0.7630996346473694,0.8799999952316284,0.0009995769654778997,1.0,9.999999747378752e-05
0.7728412985801697,0.8799999952316284,0.00020270150562282652,1.0,9.999999747378752e-05
0.7742943882942199,0.8799999952316284,0.0003180651057846262,1.0,9.999999747378752e-05
0.7774305939674377,0.8600000143051147,0.000985429820866557,1.0,9.999999747378752e-05
0.7761786341667175,0.8600000143051147,0.0006234529857465532,1.0,9.999999747378752e-05
0.774396026134491,0.8600000143051147,0.0003019479088834487,1.0,9.999999747378752e-05
0.7842328548431396,0.8600000143051147,0.0007072368396620731,1.0,9.999999747378752e-05
0.7856359124183655,0.8600000143051147,0.0004427684114489239,1.0,9.999999747378752e-05
0.786432945728302,0.8600000143051147,0.0004731154374894686,1.0,9.999999747378752e-05
0.787862753868103,0.8600000143051147,0.0005599442018137779,1.0,9.999999747378752e-05
0.7848587989807129,0.8600000143051147,0.00016120503642014228,1.0,9.999999747378752e-05
0.7817538738250732,0.8600000143051147,0.0002019327559537487,1.0,9.999999747378752e-05
0.7812238693237304,0.8600000143051147,0.0004563550402963301,1.0,9.999999747378752e-05
0.7714256286621094,0.8799999952316284,0.002054142342603882,1.0,9.999999747378752e-05
0.7788238644599914,0.8799999952316284,0.000625625996326562,1.0,9.999999747378752e-05
0.781458055973053,0.8600000143051147,0.0010553261861787177,1.0,9.999999747378752e-05
0.7816966295242309,0.8600000143051147,0.0007602514657264692,1.0,9.999999747378752e-05
0.7742695331573486,0.8600000143051147,0.0002625005872687325,1.0,9.999999747378752e-05
0.7654315829277039,0.8600000143051147,0.0002819454573909752,1.0,9.999999747378752e-05
0.7577833533287048,0.8600000143051147,0.00018037294248642865,1.0,9.999999747378752e-05
0.7438306331634521,0.8600000143051147,0.00045188711228547616,1.0,9.999999747378752e-05
0.7383531868457794,0.8600000143051147,0.00024708156524866354,1.0,9.999999747378752e-05
0.7336064636707306,0.8600000143051147,0.00022838012664578856,1.0,9.999999747378752e-05
0.8031758785247802,0.8600000143051147,0.0015011458552180556,1.0,9.999999747378752e-05
0.8259503960609436,0.8600000143051147,0.0002546963498389232,1.0,9.999999747378752e-05
0.8231739044189453,0.8600000143051147,0.0009690685888926964,1.0,9.999999747378752e-05
0.8131833672523499,0.8600000143051147,0.00033687128452584145,1.0,9.999999747378752e-05
0.7962465882301331,0.8600000143051147,0.0003173723736836109,1.0,9.999999747378752e-05
0.7832054376602173,0.8600000143051147,0.0011367178289219738,1.0,9.999999747378752e-05
0.767401111125946,0.8600000143051147,0.0004993005801225081,1.0,9.999999747378752e-05
0.7637483716011048,0.8600000143051147,0.00048045301518868656,1.0,9.999999747378752e-05
0.7598402619361877,0.8600000143051147,0.00044816111330874263,1.0,9.999999747378752e-05
0.758715283870697,0.8600000143051147,0.0002764577631751308,1.0,9.999999747378752e-05
0.7599275231361389,0.8600000143051147,0.00038742030446883293,1.0,9.999999747378752e-05
0.7537137985229492,0.8600000143051147,0.0003077007979300106,1.0,9.999999747378752e-05
0.760528814792633,0.8600000143051147,0.0008018955086299684,1.0,9.999999747378752e-05
0.7441850185394288,0.8600000143051147,0.001066438695124816,1.0,9.999999747378752e-05
0.7136705935001373,0.8799999952316284,0.001661619351943955,1.0,9.999999747378752e-05
0.7471212148666382,0.8600000143051147,0.0014417933034565067,1.0,9.999999747378752e-05
0.778013002872467,0.8600000143051147,0.0005725647384679178,1.0,9.999999747378752e-05
0.7877649068832397,0.8600000143051147,0.00020646212906285654,1.0,9.999999747378752e-05
0.7881045341491699,0.8600000143051147,0.00028544179876917043,1.0,9.999999747378752e-05
0.7862772226333619,0.8600000143051147,0.003882298719145183,1.0,9.999999747378752e-05
0.7687466740608215,0.8799999952316284,0.000805810291058151,1.0,9.999999747378752e-05
0.7691049933433532,0.8799999952316284,0.0008512460510246456,1.0,9.999999747378752e-05
0.7769760251045227,0.8600000143051147,0.002224857625333243,1.0,9.999999747378752e-05
0.7931316733360291,0.8600000143051147,0.0004907761693175416,1.0,9.999999747378752e-05
0.7889788985252381,0.8600000143051147,0.00022962708171689883,1.0,9.999999747378752e-05
0.7826857686042785,0.8600000143051147,0.0002116829258739017,1.0,9.999999747378752e-05
0.7824843764305115,0.8600000143051147,0.0008943081615143455,1.0,9.999999747378752e-05
0.77780202627182,0.8600000143051147,0.000535229944580351,1.0,9.999999747378752e-05
0.7749375343322754,0.8600000143051147,0.0001801531048840843,1.0,9.999999747378752e-05
0.7837103843688965,0.8600000143051147,0.0007472566998330876,1.0,9.999999747378752e-05
0.7659311771392823,0.8600000143051147,0.0008925931688281707,1.0,9.999999747378752e-05
0.7792916297912598,0.8600000143051147,0.003777983791951556,1.0,9.999999747378752e-05
0.8326300859451294,0.8399999737739563,0.0004911769472528249,1.0,9.999999747378752e-05
0.8235551595687867,0.8399999737739563,0.0006536271881486755,1.0,9.999999747378752e-05
0.8848531007766723,0.8600000143051147,0.003069249727195711,1.0,9.999999747378752e-05
0.8961030006408691,0.8600000143051147,0.0006768133502191631,1.0,9.999999747378752e-05
0.891546368598938,0.8600000143051147,0.0002591604770714184,1.0,9.999999747378752e-05
0.8810841321945191,0.8600000143051147,0.000308898863295326,1.0,9.999999747378752e-05
0.8629876375198364,0.8600000143051147,0.00024675154345459304,1.0,9.999999747378752e-05
0.8469135403633118,0.8600000143051147,0.0014542045679263537,1.0,9.999999747378752e-05
0.8289496898651123,0.8600000143051147,0.000500547826231923,1.0,9.999999747378752e-05
0.809504234790802,0.8600000143051147,0.00030764894327148793,1.0,9.999999747378752e-05
0.7927835583686829,0.8600000143051147,0.00015036994955153205,1.0,9.999999747378752e-05
0.7822703123092651,0.8600000143051147,0.00031025454991322475,1.0,9.999999747378752e-05
0.7676147580146789,0.8600000143051147,0.00029826783502358013,1.0,9.999999747378752e-05
0.7456879019737244,0.8600000143051147,0.0001988761763641378,1.0,9.999999747378752e-05
0.7369811356067657,0.8600000143051147,0.000319429026421858,1.0,9.999999747378752e-05
0.7351761937141419,0.8600000143051147,0.00023184475940070116,1.0,9.999999747378752e-05
0.7187723100185395,0.8600000143051147,0.000563323064125143,1.0,9.999999747378752e-05
0.7140295743942261,0.8600000143051147,0.0003638146175944712,1.0,9.999999747378752e-05
0.7634697675704956,0.8600000143051147,0.0013376139950196375,1.0,9.999999747378752e-05
0.7860558032989502,0.8600000143051147,0.00022354516877385323,1.0,9.999999747378752e-05
0.7889988422393799,0.8600000143051147,0.00029541553994931745,1.0,9.999999747378752e-05
0.7882760047912598,0.8600000143051147,0.0006111505957960617,1.0,9.999999747378752e-05
0.7939660787582398,0.8600000143051147,0.0004552532591333147,1.0,9.999999747378752e-05
0.7779425144195556,0.8600000143051147,0.0005953915446298197,1.0,9.999999747378752e-05
0.7733855485916138,0.8600000143051147,0.00044271895021665844,1.0,9.999999747378752e-05
0.7719865918159485,0.8600000143051147,0.00022795186159783044,1.0,9.999999747378752e-05
0.770981776714325,0.8600000143051147,0.00020013610701425933,1.0,9.999999747378752e-05
0.7656926989555359,0.8600000143051147,0.00037249938686727545,1.0,9.999999747378752e-05
0.7615721762180329,0.8600000143051147,0.0005403957744420041,1.0,9.999999747378752e-05
0.7471582412719726,0.8600000143051147,0.00022028618077456484,1.0,9.999999747378752e-05
0.7447691142559052,0.8600000143051147,0.0008357243106729584,1.0,9.999999747378752e-05
0.7292659223079682,0.8600000143051147,0.00032425193930976095,1.0,9.999999747378752e-05
0.725274658203125,0.8600000143051147,0.00033150394938274985,1.0,9.999999747378752e-05
0.7347122490406036,0.8600000143051147,0.00033212910748261495,1.0,9.999999747378752e-05
0.7477015435695649,0.8600000143051147,0.0005603206373052672,1.0,9.999999747378752e-05
0.7585137486457825,0.8600000143051147,0.00016042573261074722,1.0,9.999999747378752e-05
0.7645193576812744,0.8600000143051147,0.0002508449695596937,1.0,9.999999747378752e-05
0.777817702293396,0.8600000143051147,0.0005509644481207943,1.0,9.999999747378752e-05
0.783660352230072,0.8600000143051147,0.0007643020622708719,1.0,9.999999747378752e-05
0.7842150092124939,0.8600000143051147,0.0005062460630142595,1.0,9.999999747378752e-05
0.7805848479270935,0.8600000143051147,0.00018031787149084267,1.0,9.999999747378752e-05
0.7795245885848999,0.8600000143051147,0.0001238256172655383,1.0,9.999999747378752e-05
0.7748834967613221,0.8600000143051147,0.0002676623571460368,1.0,9.999999747378752e-05
0.7676940321922302,0.8600000143051147,0.00024017679716052952,1.0,9.999999747378752e-05
0.7667212128639221,0.8600000143051147,0.00028995214106544156,1.0,9.999999747378752e-05
0.7785268068313599,0.8600000143051147,0.0007037256489638821,1.0,9.999999747378752e-05
0.7964312434196472,0.8600000143051147,0.0003079704529227456,1.0,9.999999747378752e-05
0.8003597855567932,0.8600000143051147,0.000462532632809598,1.0,9.999999747378752e-05
0.8065478086471558,0.8600000143051147,0.00042543917588773185,1.0,9.999999747378752e-05
0.8080662012100219,0.8600000143051147,0.00016398086154367775,1.0,9.999999747378752e-05
0.7971096515655518,0.8600000143051147,0.00022081419556343462,1.0,9.999999747378752e-05
0.7870140671730042,0.8600000143051147,0.00019194100568711291,1.0,9.999999747378752e-05
0.7911876678466797,0.8600000143051147,0.001310746091621695,1.0,9.999999747378752e-05
0.8331441044807434,0.8600000143051147,0.0009333283989690245,1.0,9.999999747378752e-05
0.842490291595459,0.8600000143051147,0.0002376960441324627,1.0,9.999999747378752e-05
0.8387801170349121,0.8600000143051147,0.00010618279957270715,1.0,9.999999747378752e-05
0.8279740214347839,0.8600000143051147,0.00012710729570244438,1.0,9.999999747378752e-05
0.8151311635971069,0.8600000143051147,0.00014555860616383143,1.0,9.999999747378752e-05
0.8181824088096619,0.8600000143051147,0.0005465693635414937,1.0,9.999999747378752e-05
0.8198537230491638,0.8600000143051147,0.00038016658727428875,1.0,9.999999747378752e-05
0.8100116729736329,0.8600000143051147,0.0001837183561292477,1.0,9.999999747378752e-05
0.8042676448822021,0.8600000143051147,0.0007728819582553115,1.0,9.999999747378752e-05
0.8072174072265625,0.8600000143051147,0.00023648713940929155,1.0,9.999999747378752e-05
0.802503228187561,0.8600000143051147,0.0007034888742055046,1.0,9.999999747378752e-05
0.7999850511550903,0.8600000143051147,0.00035769545356743036,1.0,9.999999747378752e-05
0.8129626512527466,0.8600000143051147,0.00033794690625654766,1.0,9.999999747378752e-05
0.8110620141029358,0.8600000143051147,0.0001285849946725648,1.0,9.999999747378752e-05
0.8067646503448487,0.8600000143051147,0.00021734344991273247,1.0,9.999999747378752e-05
0.7815873384475708,0.8600000143051147,0.0003559660206519766,1.0,9.999999747378752e-05
0.7660968780517579,0.8600000143051147,0.0001039529083755042,1.0,9.999999747378752e-05
0.7586057543754577,0.8600000143051147,0.0004925986244415981,1.0,9.999999747378752e-05
1.3592584282159805,0.7799999713897705,0.004019597301885369,1.0,9.999999747378752e-05
1.1756802946329117,0.8199999928474426,0.04984105701878434,0.9900000095367432,9.999999747378752e-05
0.6296266456134617,0.9200000166893005,0.00732681190565927,1.0,9.999999747378752e-05
0.58514219596982,0.8999999761581421,0.023332855306216517,0.9900000095367432,9.999999747378752e-05
0.6690269410610199,0.8799999952316284,0.009515687021485064,1.0,9.999999747378752e-05
0.8303840279579162,0.8399999737739563,0.0056165235786465924,1.0,9.999999747378752e-05
0.8872012495994568,0.8199999928474426,0.0006159942280646646,1.0,9.999999747378752e-05
0.8784871935844422,0.8199999928474426,0.0010132529874681494,1.0,9.999999747378752e-05
0.8475775361061096,0.8199999928474426,0.0007399556969176046,1.0,9.999999747378752e-05
0.8381981790065766,0.8399999737739563,0.001503820349171292,1.0,9.999999747378752e-05
0.8233274459838867,0.8399999737739563,0.00036755839610123073,1.0,9.999999747378752e-05
0.8076958537101746,0.8399999737739563,0.000541300587792648,1.0,9.999999747378752e-05
0.7905986785888672,0.8399999737739563,0.0008196904222131707,1.0,9.999999747378752e-05
0.7768376708030701,0.8399999737739563,0.0005500018938619178,1.0,9.999999747378752e-05
0.7579253435134887,0.8399999737739563,0.0007245944623718969,1.0,9.999999747378752e-05
1.0264744281768798,0.8199999928474426,0.007909357277458184,1.0,9.999999747378752e-05
1.0250693440437317,0.800000011920929,0.0016304493710777024,1.0,9.999999747378752e-05
0.9674289286136627,0.8199999928474426,0.0007628740626387298,1.0,9.999999747378752e-05
0.8601764023303986,0.8399999737739563,0.0024654739441757555,1.0,9.999999747378752e-05
0.8103717923164367,0.8399999737739563,0.0005337782931746915,1.0,9.999999747378752e-05
0.7789421677589417,0.8399999737739563,0.0007435394611093216,1.0,9.999999747378752e-05
0.7435097217559814,0.8600000143051147,0.0014684454508824274,1.0,9.999999747378752e-05
0.6848746776580811,0.8799999952316284,0.0014927470503607765,1.0,9.999999747378752e-05
0.6658499896526336,0.8799999952316284,0.0002629239053931087,1.0,9.999999747378752e-05
0.6616119325160981,0.8799999952316284,0.0003048429367481731,1.0,9.999999747378752e-05
0.6579066574573517,0.8799999952316284,0.0005877483010408469,1.0,9.999999747378752e-05
0.6593547344207764,0.8799999952316284,0.0002730315340158995,1.0,9.999999747378752e-05
0.6633462548255921,0.8799999952316284,0.00032695027912268417,1.0,9.999999747378752e-05
0.6629003524780274,0.8799999952316284,0.0012940798929776064,1.0,9.999999747378752e-05
0.6636462569236755,0.8799999952316284,0.0003910940264177043,1.0,9.999999747378752e-05
0.6593182623386383,0.8799999952316284,0.0005944169563008473,1.0,9.999999747378752e-05
0.6597046911716461,0.8799999952316284,0.000744907213083934,1.0,9.999999747378752e-05
0.663822078704834,0.8799999952316284,0.00020730015967274085,1.0,9.999999747378752e-05
0.6686223864555358,0.8799999952316284,0.00024996952379297,1.0,9.999999747378752e-05
0.6768373847007751,0.8799999952316284,0.00045600355151691473,1.0,9.999999747378752e-05
0.6863315105438232,0.8799999952316284,0.00016139104845933617,1.0,9.999999747378752e-05
0.6929172873497009,0.8799999952316284,0.00024246678585768678,1.0,9.999999747378752e-05
0.6973956108093262,0.8799999952316284,0.00017619898135308177,1.0,9.999999747378752e-05
0.7056796252727509,0.8799999952316284,0.0005749114050559001,1.0,9.999999747378752e-05
0.7121236503124238,0.8799999952316284,0.00021820774854859338,1.0,9.999999747378752e-05
0.7136193454265595,0.8799999952316284,0.0003165182226439356,1.0,9.999999747378752e-05
0.7174597918987274,0.8600000143051147,0.001004108901543077,1.0,9.999999747378752e-05
0.7206761956214904,0.8600000143051147,0.0005148124568222556,1.0,9.999999747378752e-05
0.7245151281356812,0.8600000143051147,0.00019220349022361916,1.0,9.999999747378752e-05
0.7301194071769714,0.8600000143051147,0.0004071178220328875,1.0,9.999999747378752e-05
0.7309046506881713,0.8600000143051147,0.00019515501444402616,1.0,9.999999747378752e-05
0.732862675189972,0.8600000143051147,0.00012927798125019762,1.0,9.999999747378752e-05
0.7325216650962829,0.8600000143051147,0.0009502755587163847,1.0,9.999999747378752e-05
0.7409814476966858,0.8600000143051147,0.00036896984893246553,1.0,9.999999747378752e-05
0.7437486052513123,0.8600000143051147,0.0005112191793159582,1.0,9.999999747378752e-05
0.7482558846473694,0.8600000143051147,0.0005397856195486384,1.0,9.999999747378752e-05
0.7500725626945496,0.8600000143051147,0.0002801615875796415,1.0,9.999999747378752e-05
0.7537784934043884,0.8600000143051147,0.0002396608306298731,1.0,9.999999747378752e-05
0.7572127938270569,0.8600000143051147,0.00019986938968941104,1.0,9.999999747378752e-05
0.7592073321342468,0.8600000143051147,0.00042043666217068677,1.0,9.999999747378752e-05
0.7568573355674744,0.8600000143051147,0.0002467037204041844,1.0,9.999999747378752e-05
0.7469172000885009,0.8600000143051147,0.0011036469752070844,1.0,9.999999747378752e-05
0.7432730793952942,0.8600000143051147,0.00033105079346569256,1.0,9.999999747378752e-05
0.8007042288780213,0.8600000143051147,0.0012978199931239943,1.0,9.999999747378752e-05
0.8241577029228211,0.8600000143051147,0.00015528238800470716,1.0,9.999999747378752e-05
0.8247091054916382,0.8600000143051147,0.00019844408707285764,1.0,9.999999747378752e-05
0.8206626176834106,0.8600000143051147,0.00014655552877229638,1.0,9.999999747378752e-05
0.8139878749847412,0.8600000143051147,0.00030869873335177546,1.0,9.999999747378752e-05
0.8083527445793152,0.8600000143051147,0.00031794422211532946,1.0,9.999999747378752e-05
0.8036551833152771,0.8600000143051147,0.00034101696619472934,1.0,9.999999747378752e-05
0.8074681162834167,0.8600000143051147,0.0003901020638295449,1.0,9.999999747378752e-05
0.8067589998245239,0.8600000143051147,0.00013109829287714093,1.0,9.999999747378752e-05
0.807460618019104,0.8600000143051147,0.0006646951242146315,1.0,9.999999747378752e-05
0.8021813035011292,0.8600000143051147,0.0001601901454705512,1.0,9.999999747378752e-05
0.7996024250984192,0.8600000143051147,0.00021394896939455065,1.0,9.999999747378752e-05
0.7990607738494873,0.8600000143051147,0.0002314188412128715,1.0,9.999999747378752e-05
0.8094866156578064,0.8600000143051147,0.0008240080324867449,1.0,9.999999747378752e-05
0.814953351020813,0.8600000143051147,0.0002900286359363236,1.0,9.999999747378752e-05
0.8171502232551575,0.8600000143051147,0.0006452892950619571,1.0,9.999999747378752e-05
0.8022754907608032,0.8600000143051147,0.0003873390713124536,1.0,9.999999747378752e-05
0.7780791282653808,0.8600000143051147,0.00040036490063357635,1.0,9.999999747378752e-05
0.7665176391601562,0.8600000143051147,0.00025989865716837814,1.0,9.999999747378752e-05
0.7601094365119934,0.8600000143051147,0.00028409305414243133,1.0,9.999999747378752e-05
0.7589707255363465,0.8600000143051147,0.00020885503545287065,1.0,9.999999747378752e-05
0.7553174138069153,0.8600000143051147,0.0008454114646156086,1.0,9.999999747378752e-05
0.7528791546821594,0.8600000143051147,0.0005070761098977528,1.0,9.999999747378752e-05
0.7528105854988099,0.8600000143051147,0.00019413386653468478,1.0,9.999999747378752e-05
0.7574064254760742,0.8600000143051147,0.00027188112690055275,1.0,9.999999747378752e-05
0.7777414202690125,0.8600000143051147,0.0006169480722746812,1.0,9.999999747378752e-05
0.7870366334915161,0.8600000143051147,0.00033362031936121637,1.0,9.999999747378752e-05
0.78711097240448,0.8600000143051147,0.0006493991644674679,1.0,9.999999747378752e-05
0.7860694885253906,0.8600000143051147,0.0008212923079554457,1.0,9.999999747378752e-05
0.8088618040084838,0.8600000143051147,0.0004928812308207853,1.0,9.999999747378752e-05
0.8288250923156738,0.8600000143051147,0.00041429678167332896,1.0,9.999999747378752e-05
0.834431529045105,0.8600000143051147,0.00014295096007117537,1.0,9.999999747378752e-05
0.8394478797912598,0.8600000143051147,0.0004163853642239701,1.0,9.999999747378752e-05
0.8403070330619812,0.8600000143051147,0.00020255415874999018,1.0,9.999999747378752e-05
0.8331524133682251,0.8600000143051147,0.0001790711030480452,1.0,9.999999747378752e-05
0.8277941465377807,0.8600000143051147,0.00017613861200516112,1.0,9.999999747378752e-05
0.830957007408142,0.8600000143051147,0.0007115136508218711,1.0,9.999999747378752e-05
0.8316432714462281,0.8600000143051147,0.00024684305080882043,1.0,9.999999747378752e-05
0.8301069617271424,0.8600000143051147,0.00033795335148170127,1.0,9.999999747378752e-05
0.8182620525360107,0.8600000143051147,0.0004015451209852472,1.0,9.999999747378752e-05
0.8139085888862609,0.8600000143051147,0.0001804797297154437,1.0,9.999999747378752e-05
0.8146532416343689,0.8600000143051147,0.00010119303806277458,1.0,9.999999747378752e-05
0.8224913477897644,0.8600000143051147,0.0008117659137496958,1.0,9.999999747378752e-05
0.828604781627655,0.8600000143051147,0.00012183317030576291,1.0,9.999999747378752e-05
0.829418957233429,0.8600000143051147,0.0001836540708609391,1.0,9.999999747378752e-05
0.8461200594902039,0.8600000143051147,0.0010496253387827891,1.0,9.999999747378752e-05
0.8544729590415955,0.8600000143051147,0.0003023842962647905,1.0,9.999999747378752e-05
0.8552833914756774,0.8600000143051147,0.0003235481295632781,1.0,9.999999747378752e-05
0.8466247677803039,0.8600000143051147,0.0003767275733480346,1.0,9.999999747378752e-05
0.839703893661499,0.8600000143051147,0.0003142442543321522,1.0,9.999999747378752e-05
0.8385785579681396,0.8600000143051147,0.00045343209967541043,1.0,9.999999747378752e-05
0.8404006600379944,0.8600000143051147,0.0001227743960043881,1.0,9.999999747378752e-05
0.8272240638732911,0.8600000143051147,0.00025231767358491197,1.0,9.999999747378752e-05
0.818134343624115,0.8600000143051147,0.00029461850099323785,1.0,9.999999747378752e-05
0.8166563510894775,0.8600000143051147,0.00019346548069734126,1.0,9.999999747378752e-05
0.8207890033721924,0.8600000143051147,0.0002634030406625243,1.0,9.999999747378752e-05
0.8209646224975586,0.8600000143051147,0.00010897582178586163,1.0,9.999999747378752e-05
0.8204973340034485,0.8600000143051147,0.00011516205122461543,1.0,9.999999747378752e-05
0.8144057035446167,0.8600000143051147,0.00023950729046191556,1.0,9.999999747378752e-05
0.8161592125892639,0.8600000143051147,0.00029967713035148333,1.0,9.999999747378752e-05
0.812422001361847,0.8600000143051147,0.00032447626272187337,1.0,9.999999747378752e-05
0.8075494408607483,0.8600000143051147,0.00011850043356389505,1.0,9.999999747378752e-05
0.818957781791687,0.8600000143051147,0.0003830573052255204,1.0,9.999999747378752e-05
0.8203982830047607,0.8600000143051147,0.00029781724497297547,1.0,9.999999747378752e-05
0.8202536225318908,0.8600000143051147,0.00013759782268607523,1.0,9.999999747378752e-05
0.8212510704994201,0.8600000143051147,0.00017352132526866627,1.0,9.999999747378752e-05
0.8208870410919189,0.8600000143051147,0.00026922515462501906,1.0,9.999999747378752e-05
0.8202528715133667,0.8600000143051147,0.0003891071908583399,1.0,9.999999747378752e-05
0.8443428754806519,0.8600000143051147,0.0003409802762689651,1.0,9.999999747378752e-05
0.8543254375457764,0.8600000143051147,7.459551288775401e-05,1.0,9.999999747378752e-05
0.8563220620155334,0.8600000143051147,0.00013776552877970972,1.0,9.999999747378752e-05
0.8481427311897278,0.8600000143051147,0.000509833223077294,1.0,9.999999747378752e-05
0.8367044687271118,0.8600000143051147,0.00017939353892870713,1.0,9.999999747378752e-05
0.8273584604263305,0.8600000143051147,0.00015216520441754255,1.0,9.999999747378752e-05
0.8260376214981079,0.8600000143051147,0.0002757561163889477,1.0,9.999999747378752e-05
0.8597365736961364,0.8600000143051147,0.0017099965971283382,1.0,9.999999747378752e-05
0.8691988110542297,0.8600000143051147,0.0008568601107981522,1.0,9.999999747378752e-05
0.8662994742393494,0.8600000143051147,0.0008558138768421486,1.0,9.999999747378752e-05
0.8652343153953552,0.8600000143051147,0.00020133949255978222,1.0,9.999999747378752e-05
0.8644376158714294,0.8600000143051147,0.0002133526093530236,1.0,9.999999747378752e-05
0.8436689615249634,0.8600000143051147,0.0004701949525042437,1.0,9.999999747378752e-05
0.8286509275436401,0.8600000143051147,0.0003724316899024416,1.0,9.999999747378752e-05
0.8237272262573242,0.8600000143051147,0.000263590977556305,1.0,9.999999747378752e-05
0.8233026981353759,0.8600000143051147,0.00024139525958162268,1.0,9.999999747378752e-05
0.8285331726074219,0.8600000143051147,0.00043454573533381337,1.0,9.999999747378752e-05
0.831621789932251,0.8600000143051147,0.00018139268595405156,1.0,9.999999747378752e-05
0.8361716032028198,0.8600000143051147,0.00016396526552853175,1.0,9.999999747378752e-05
0.841815447807312,0.8600000143051147,0.0002168969400372589,1.0,9.999999747378752e-05
0.8413120388984681,0.8600000143051147,0.00033236302624573,1.0,9.999999747378752e-05
0.8427513003349304,0.8600000143051147,0.00030021151305845704,1.0,9.999999747378752e-05
0.8465219140052795,0.8600000143051147,0.00014272897151386134,1.0,9.999999747378752e-05
0.8501824378967285,0.8600000143051147,0.0002098316250339849,1.0,9.999999747378752e-05
0.8504797458648682,0.8600000143051147,0.0001233324170243577,1.0,9.999999747378752e-05
0.8471048951148987,0.8600000143051147,0.00031802811445231783,1.0,9.999999747378752e-05
0.8449466347694397,0.8600000143051147,0.00031252309017872906,1.0,9.999999747378752e-05
0.8462105393409729,0.8600000143051147,0.00012408515613060445,1.0,9.999999747378752e-05
0.8499028086662292,0.8600000143051147,0.00034334888359808244,1.0,9.999999747378752e-05
0.8517172813415528,0.8600000143051147,0.0002462224807459279,1.0,9.999999747378752e-05
0.8502123475074768,0.8600000143051147,0.00012215831811772658,1.0,9.999999747378752e-05
0.8472240090370178,0.8600000143051147,0.00017540214230393758,1.0,9.999999747378752e-05
0.8486685514450073,0.8600000143051147,0.0001805318001061096,1.0,9.999999747378752e-05
0.8615439176559448,0.8600000143051147,0.0007255311647895724,1.0,9.999999747378752e-05
0.8713487029075623,0.8600000143051147,0.0004626668654964305,1.0,9.999999747378752e-05
0.8713066935539245,0.8600000143051147,0.00013517928273358847,1.0,9.999999747378752e-05
0.8666500091552735,0.8600000143051147,0.00018313060209038668,1.0,9.999999747378752e-05
0.8733716249465943,0.8600000143051147,0.0008423746694461443,1.0,9.999999747378752e-05
0.9082410573959351,0.8600000143051147,0.00015770871086715488,1.0,9.999999747378752e-05
0.9154871344566345,0.8600000143051147,0.00013412276039161952,1.0,9.999999747378752e-05
0.9025308728218079,0.8600000143051147,0.00031104013251024296,1.0,9.999999747378752e-05
0.8888739109039306,0.8600000143051147,0.00012716705659840955,1.0,9.999999747378752e-05
0.8546828269958496,0.8600000143051147,0.0005076354060292943,1.0,9.999999747378752e-05
0.8395958662033081,0.8600000143051147,0.00010647009457898093,1.0,9.999999747378752e-05
0.8172423124313355,0.8600000143051147,0.0009203892814184655,1.0,9.999999747378752e-05
0.8056277632713318,0.8600000143051147,0.00022352033120114355,1.0,9.999999747378752e-05
0.806719958782196,0.8600000143051147,0.00018466097571945284,1.0,9.999999747378752e-05
0.8229782342910766,0.8600000143051147,0.0006375711887812941,1.0,9.999999747378752e-05
0.8439648151397705,0.8600000143051147,0.00013841198815498502,1.0,9.999999747378752e-05
0.850217878818512,0.8600000143051147,0.00024902368713810576,1.0,9.999999747378752e-05
0.8464726090431214,0.8600000143051147,9.85000137006864e-05,1.0,9.999999747378752e-05
0.8434837698936463,0.8600000143051147,0.000664440603213734,1.0,9.999999747378752e-05
0.8464805841445923,0.8600000143051147,0.00012224143210914917,1.0,9.999999747378752e-05
0.844218635559082,0.8600000143051147,0.0002179657347369357,1.0,9.999999747378752e-05
0.8423913717269897,0.8600000143051147,0.00012647445946640802,1.0,9.999999747378752e-05
0.862681770324707,0.8600000143051147,0.0006334843812510372,1.0,9.999999747378752e-05
0.8772329330444336,0.8600000143051147,0.0004121107376704458,1.0,9.999999747378752e-05
0.8818495154380799,0.8600000143051147,0.00013619133569591212,1.0,9.999999747378752e-05
0.878982400894165,0.8600000143051147,0.00013514426009351155,1.0,9.999999747378752e-05
0.8785224437713623,0.8600000143051147,0.00023874767211964353,1.0,9.999999747378752e-05
0.8755102157592773,0.8600000143051147,0.00013169721405574818,1.0,9.999999747378752e-05
0.8726183891296386,0.8600000143051147,0.00015178065023064847,1.0,9.999999747378752e-05
0.876664912700653,0.8600000143051147,0.00033771447888284454,1.0,9.999999747378752e-05
0.8748174786567688,0.8600000143051147,0.00014050804638827686,1.0,9.999999747378752e-05
0.8734168648719788,0.8600000143051147,0.00013745918058702956,1.0,9.999999747378752e-05
0.8676020383834839,0.8600000143051147,0.000128317906819575,1.0,9.999999747378752e-05
0.863982105255127,0.8600000143051147,0.00016412152617704124,1.0,9.999999747378752e-05
0.8637336969375611,0.8600000143051147,6.542190021718852e-05,1.0,9.999999747378752e-05
0.8307065725326538,0.8600000143051147,0.0019084121304331347,1.0,9.999999747378752e-05
0.6767780601978302,0.8799999952316284,0.0001654981768297148,1.0,9.999999747378752e-05
0.6726626813411712,0.8799999952316284,0.0007032277571852319,1.0,9.999999747378752e-05
0.7109316647052765,0.8799999952316284,0.00023882950627012177,1.0,9.999999747378752e-05
0.7448529601097107,0.8799999952316284,0.0002842979858542094,1.0,9.999999747378752e-05
0.7744102120399475,0.8799999952316284,0.0001149326464656042,1.0,9.999999747378752e-05
0.8039180397987366,0.8600000143051147,0.0003166878032061504,1.0,9.999999747378752e-05
0.8247931003570557,0.8600000143051147,0.000300678384519415,1.0,9.999999747378752e-05
0.8361907601356506,0.8600000143051147,0.00017916423566930462,1.0,9.999999747378752e-05
0.8442600965499878,0.8600000143051147,0.0002248660027362348,1.0,9.999999747378752e-05
0.841236662864685,0.8600000143051147,0.00023541439913969952,1.0,9.999999747378752e-05
0.8419045686721802,0.8600000143051147,0.00010363432029407705,1.0,9.999999747378752e-05
0.8482493877410888,0.8600000143051147,0.0002938088713563047,1.0,9.999999747378752e-05
0.8889740347862244,0.8600000143051147,0.0005349318844309892,1.0,9.999999747378752e-05
0.9294145822525024,0.8399999737739563,0.00012092703855159925,1.0,9.999999747378752e-05
0.940021562576294,0.8399999737739563,0.0001425854146873462,1.0,9.999999747378752e-05
0.9358243346214294,0.8399999737739563,0.0001337363926722901,1.0,9.999999747378752e-05
0.9313682436943054,0.8399999737739563,0.00021537489446927794,1.0,9.999999747378752e-05
0.9332134962081909,0.8600000143051147,0.00039025066726026123,1.0,9.999999747378752e-05
0.9364186525344849,0.8600000143051147,0.00014843238241155632,1.0,9.999999747378752e-05
0.9426541566848755,0.8600000143051147,0.00028477853993535973,1.0,9.999999747378752e-05
0.9374210476875305,0.8600000143051147,0.00014300793227448594,1.0,9.999999747378752e-05
0.931521737575531,0.8600000143051147,0.00015715777790319406,1.0,9.999999747378752e-05
0.9174128413200379,0.8600000143051147,0.0006231033646145079,1.0,9.999999747378752e-05
0.8840324282646179,0.8600000143051147,0.0006659665043116548,1.0,9.999999747378752e-05
0.9056182026863098,0.8600000143051147,0.00016561803076911019,1.0,9.999999747378752e-05
0.9099331021308898,0.8600000143051147,7.897305149526802e-05,1.0,9.999999747378752e-05
0.9066417455673218,0.8600000143051147,0.00018708581192186102,1.0,9.999999747378752e-05
0.9099010825157166,0.8600000143051147,0.0002150124752006377,1.0,9.999999747378752e-05
0.9034303307533265,0.8600000143051147,0.00010056908868136816,1.0,9.999999747378752e-05
0.9001181364059448,0.8600000143051147,0.00018415096219541737,1.0,9.999999747378752e-05
0.9011321783065795,0.8600000143051147,7.712036222073948e-05,1.0,9.999999747378752e-05
0.9035033345222473,0.8600000143051147,0.00037503232160815967,1.0,9.999999747378752e-05
0.9358757734298706,0.8600000143051147,0.0012702267966233193,1.0,9.999999747378752e-05
0.9917883038520813,0.8399999737739563,0.00014242709821701282,1.0,9.999999747378752e-05
1.0031414747238159,0.8399999737739563,8.167631822288967e-05,1.0,9.999999747378752e-05
1.0017894625663757,0.8399999737739563,0.0002759194348982419,1.0,9.999999747378752e-05
0.9890568614006042,0.8399999737739563,0.00013116104018990883,1.0,9.999999747378752e-05
0.9686805725097656,0.8600000143051147,0.0001562966572237201,1.0,9.999999747378752e-05
0.9624585390090943,0.8600000143051147,0.00021908364669798175,1.0,9.999999747378752e-05
0.9492124199867249,0.8600000143051147,8.001370133570163e-05,1.0,9.999999747378752e-05
0.9181184887886047,0.8600000143051147,0.00035845723814418304,1.0,9.999999747378752e-05
0.9152215361595154,0.8600000143051147,0.00040568248277850216,1.0,9.999999747378752e-05
0.9105022072792053,0.8600000143051147,0.00010170656660193344,1.0,9.999999747378752e-05
0.9009958505630493,0.8600000143051147,9.236758887709584e-05,1.0,9.999999747378752e-05
0.8935334324836731,0.8600000143051147,8.989679481601343e-05,1.0,9.999999747378752e-05
0.8874369382858276,0.8600000143051147,0.00018728942286543314,1.0,9.999999747378752e-05
0.886186158657074,0.8600000143051147,0.0002292095814482309,1.0,9.999999747378752e-05
0.8882458567619324,0.8600000143051147,0.00014887601919326697,1.0,9.999999747378752e-05
0.8816013097763061,0.8600000143051147,0.0001719589225103846,1.0,9.999999747378752e-05
0.8661243438720703,0.8600000143051147,0.00011237345033805468,1.0,9.999999747378752e-05
0.860701048374176,0.8600000143051147,0.0001743056845953106,1.0,9.999999747378752e-05
0.9447381377220154,0.8600000143051147,0.0006735809777637769,1.0,9.999999747378752e-05
0.9697670459747314,0.8399999737739563,8.833852243697037e-05,1.0,9.999999747378752e-05
0.969265627861023,0.8399999737739563,7.33094486349728e-05,1.0,9.999999747378752e-05
0.9622419476509094,0.8600000143051147,3.47873370628804e-05,1.0,9.999999747378752e-05
0.9423166155815125,0.8600000143051147,0.00022799461303293355,1.0,9.999999747378752e-05
0.9273262023925781,0.8600000143051147,0.0001181601413009048,1.0,9.999999747378752e-05
0.9154143095016479,0.8600000143051147,0.00010355314707339857,1.0,9.999999747378752e-05
0.9057292938232422,0.8600000143051147,9.72311556324712e-05,1.0,9.999999747378752e-05
0.8990227937698364,0.8600000143051147,4.545563033389044e-05,1.0,9.999999747378752e-05
0.8921739220619201,0.8600000143051147,9.529858016321668e-05,1.0,9.999999747378752e-05
0.8870993256568909,0.8600000143051147,0.00010457035732542863,1.0,9.999999747378752e-05
0.8817739963531495,0.8600000143051147,8.812821415631334e-05,1.0,9.999999747378752e-05
0.8809536099433899,0.8600000143051147,0.00011012894356099423,1.0,9.999999747378752e-05
0.88033367395401,0.8600000143051147,0.00011801737528003287,1.0,9.999999747378752e-05
0.8793000936508178,0.8600000143051147,4.3356911373848564e-05,1.0,9.999999747378752e-05
0.8777578592300415,0.8600000143051147,3.672866660053842e-05,1.0,9.999999747378752e-05
0.8782668709754944,0.8600000143051147,0.00013430124809019617,1.0,9.999999747378752e-05
0.9317286014556885,0.8600000143051147,0.0030899233504896985,1.0,9.999999747378752e-05
1.08749840259552,0.8399999737739563,0.0002866285834898008,1.0,9.999999747378752e-05
1.0102703034877778,0.8399999737739563,0.0019464248052827315,1.0,9.999999747378752e-05
0.8326825082302094,0.8399999737739563,0.00043330192129360513,1.0,9.999999747378752e-05
0.7354329109191895,0.8600000143051147,0.00048297881312464597,1.0,9.999999747378752e-05
0.7381626844406128,0.8600000143051147,0.0001505229480244452,1.0,9.999999747378752e-05
0.7686211466789246,0.8600000143051147,0.0008242614661867264,1.0,9.999999747378752e-05
0.7517151832580566,0.8600000143051147,6.397882079909323e-05,1.0,9.999999747378752e-05
0.7637317180633545,0.8600000143051147,0.0003695105241604324,1.0,9.999999747378752e-05
0.7799609303474426,0.8600000143051147,0.00011956003090745071,1.0,9.999999747378752e-05
0.7858205080032349,0.8600000143051147,5.6644600408617404e-05,1.0,9.999999747378752e-05
0.7684276819229126,0.8600000143051147,0.0004298781181205413,1.0,9.999999747378752e-05
0.7675702095031738,0.8600000143051147,0.00013637577112604048,1.0,9.999999747378752e-05
0.7775911450386047,0.8600000143051147,0.00010771936122182524,1.0,9.999999747378752e-05
0.792557668685913,0.8600000143051147,0.00020634844859159784,1.0,9.999999747378752e-05
0.8167840003967285,0.8600000143051147,0.0004490510073082987,1.0,9.999999747378752e-05
0.8298564672470092,0.8600000143051147,0.00013251240143290487,1.0,9.999999747378752e-05
0.8471677899360657,0.8600000143051147,0.0011289020148979034,1.0,9.999999747378752e-05
0.8577034115791321,0.8600000143051147,0.00014880800154060125,1.0,9.999999747378752e-05
0.8606298565864563,0.8600000143051147,0.00016497504620929248,1.0,9.999999747378752e-05
0.8765501260757447,0.8600000143051147,0.00047772529105714054,1.0,9.999999747378752e-05
0.8955234527587891,0.8600000143051147,0.0006308314543275629,1.0,9.999999747378752e-05
0.8986737847328186,0.8399999737739563,9.457741416554199e-05,1.0,9.999999747378752e-05
0.892323637008667,0.8399999737739563,0.00022169897365529324,1.0,9.999999747378752e-05
0.8714263319969178,0.8600000143051147,0.0003330325944261858,1.0,9.999999747378752e-05
0.8376107692718506,0.8600000143051147,0.00012756914820784005,1.0,9.999999747378752e-05
0.8237850069999695,0.8600000143051147,0.00012262582495168318,1.0,9.999999747378752e-05
0.8212888360023498,0.8600000143051147,0.00011673706230794779,1.0,9.999999747378752e-05
0.8123813152313233,0.8600000143051147,0.0002946504866486066,1.0,9.999999747378752e-05
0.8079553127288819,0.8600000143051147,8.572354672651273e-05,1.0,9.999999747378752e-05
0.8183505058288574,0.8600000143051147,0.0002600722071292694,1.0,9.999999747378752e-05
0.8227022051811218,0.8600000143051147,9.494750684098107e-05,1.0,9.999999747378752e-05
0.8263643622398377,0.8600000143051147,0.0002607326482575445,1.0,9.999999747378752e-05
0.8401113629341126,0.8600000143051147,5.7679377277963795e-05,1.0,9.999999747378752e-05
0.844176173210144,0.8600000143051147,0.0001543636522910674,1.0,9.999999747378752e-05
0.845615005493164,0.8600000143051147,6.451844838011312e-05,1.0,9.999999747378752e-05
0.8446904182434082,0.8600000143051147,4.4429971239878796e-05,1.0,9.999999747378752e-05
0.8441452860832215,0.8600000143051147,5.8313124645792415e-05,1.0,9.999999747378752e-05
0.8436026573181152,0.8600000143051147,4.5767244455419134e-05,1.0,9.999999747378752e-05
0.8445254683494567,0.8600000143051147,0.00016281871826322457,1.0,9.999999747378752e-05
0.8257544755935669,0.8600000143051147,8.873323295119918e-05,1.0,9.999999747378752e-05
0.8418938875198364,0.8600000143051147,0.00035883800228475593,1.0,9.999999747378752e-05
0.8734480500221252,0.8600000143051147,0.00021383790744948782,1.0,9.999999747378752e-05
0.8898019075393677,0.8600000143051147,8.218659268095507e-05,1.0,9.999999747378752e-05
0.8956720113754273,0.8600000143051147,9.942710030372837e-05,1.0,9.999999747378752e-05
0.9113673567771912,0.8600000143051147,0.0002894478004236589,1.0,9.999999747378752e-05
0.9125703573226929,0.8600000143051147,0.00019595697758632014,1.0,9.999999747378752e-05
0.9018990516662597,0.8600000143051147,7.804357728673495e-05,1.0,9.999999747378752e-05
0.8911105871200562,0.8600000143051147,0.00011303931132715661,1.0,9.999999747378752e-05
0.8810697197914124,0.8600000143051147,0.0002496139229151595,1.0,9.999999747378752e-05
0.8928797841072083,0.8600000143051147,0.00033094122372858694,1.0,9.999999747378752e-05
0.8929699540138245,0.8600000143051147,2.9936191458546092e-05,1.0,9.999999747378752e-05
0.893087363243103,0.8600000143051147,7.755380293019697e-05,1.0,9.999999747378752e-05
0.8896749019622803,0.8600000143051147,3.7512109338422305e-05,1.0,9.999999747378752e-05
0.890792727470398,0.8600000143051147,0.00010851173947230563,1.0,9.999999747378752e-05
0.8874114394187927,0.8600000143051147,5.719964919990161e-05,1.0,9.999999747378752e-05
0.8843516945838928,0.8600000143051147,8.206010334106395e-05,1.0,9.999999747378752e-05
0.7701746761798859,0.8799999952316284,0.004479196780266648,1.0,9.999999747378752e-05
0.7113448977470398,0.8399999737739563,0.0005579455583756499,1.0,9.999999747378752e-05
0.7068908214569092,0.8399999737739563,0.0005205253750318661,1.0,9.999999747378752e-05
0.8682018756866455,0.8399999737739563,0.0025591542151232717,1.0,9.999999747378752e-05
0.9005582690238952,0.8399999737739563,0.0009239805513061583,1.0,9.999999747378752e-05
0.7917901635169983,0.8799999952316284,0.0010367653409048216,1.0,9.999999747378752e-05
0.773425281047821,0.8799999952316284,0.0003088304765697103,1.0,9.999999747378752e-05
0.9245471000671387,0.8399999737739563,0.0009450865132748732,1.0,9.999999747378752e-05
0.970712172985077,0.8399999737739563,0.00012269443250261246,1.0,9.999999747378752e-05
0.9739289522171021,0.8399999737739563,0.0002307094728166703,1.0,9.999999747378752e-05
0.9800573110580444,0.8399999737739563,0.0001870829477411462,1.0,9.999999747378752e-05
0.9808889985084533,0.8399999737739563,0.0003475186843388656,1.0,9.999999747378752e-05
0.9621141672134399,0.8399999737739563,0.00013217527848610188,1.0,9.999999747378752e-05
0.9535476326942444,0.8399999737739563,0.00011910361536138225,1.0,9.999999747378752e-05
0.9507965326309205,0.8399999737739563,0.00018807083379215327,1.0,9.999999747378752e-05
0.925822126865387,0.8399999737739563,0.0002051671348453965,1.0,9.999999747378752e-05
0.9041842460632324,0.8399999737739563,0.00024381972089031477,1.0,9.999999747378752e-05
0.892392611503601,0.8399999737739563,7.88752588960051e-05,1.0,9.999999747378752e-05
0.884378445148468,0.8399999737739563,0.00010576612721706624,1.0,9.999999747378752e-05
0.8793305397033692,0.8600000143051147,6.065499610485858e-05,1.0,9.999999747378752e-05
0.850479805469513,0.8799999952316284,0.0003453453781730786,1.0,9.999999747378752e-05
0.8409294962882996,0.8799999952316284,4.22186258219881e-05,1.0,9.999999747378752e-05
0.8375668406486512,0.8799999952316284,7.358063539868454e-05,1.0,9.999999747378752e-05
0.841523540019989,0.8799999952316284,0.0001414103559909563,1.0,9.999999747378752e-05
0.8475312948226928,0.8600000143051147,0.0001440710726456018,1.0,9.999999747378752e-05
0.8518451094627381,0.8600000143051147,5.4226698011916596e-05,1.0,9.999999747378752e-05
0.8548511385917663,0.8600000143051147,4.226174814903061e-05,1.0,9.999999747378752e-05
0.8573044657707214,0.8600000143051147,7.120931759345695e-05,1.0,9.999999747378752e-05
0.8595901131629944,0.8600000143051147,5.0544895930215714e-05,1.0,9.999999747378752e-05
0.8627434611320496,0.8600000143051147,0.00011415532608225477,1.0,9.999999747378752e-05
0.8708585739135742,0.8600000143051147,0.00012260211960892775,1.0,9.999999747378752e-05
0.8760141134262085,0.8600000143051147,6.901863648636208e-05,1.0,9.999999747378752e-05
0.878933560848236,0.8600000143051147,0.00010290161699231249,1.0,9.999999747378752e-05
0.8799721956253052,0.8600000143051147,7.398648212983972e-05,1.0,9.999999747378752e-05
0.8800356388092041,0.8600000143051147,3.6247022035240664e-05,1.0,9.999999747378752e-05
0.8785681128501892,0.8600000143051147,5.092528244858841e-05,1.0,9.999999747378752e-05
0.8820643663406372,0.8600000143051147,0.00023250565509442823,1.0,9.999999747378752e-05
0.8841484904289245,0.8600000143051147,8.172934667527443e-05,1.0,9.999999747378752e-05
0.8834279537200928,0.8600000143051147,7.284517587322626e-05,1.0,9.999999747378752e-05
0.8810797452926635,0.8600000143051147,0.0001289350844672299,1.0,9.999999747378752e-05
0.8784900426864624,0.8600000143051147,3.081009645029553e-05,1.0,9.999999747378752e-05
0.8771001815795898,0.8600000143051147,4.52125274023274e-05,1.0,9.999999747378752e-05
0.8787699818611145,0.8600000143051147,0.00011000577515005717,1.0,9.999999747378752e-05
0.8824347734451294,0.8600000143051147,0.00011276807072135853,1.0,9.999999747378752e-05
0.8261021733283996,0.8600000143051147,0.003102930099430523,1.0,9.999999747378752e-05
0.9428898572921753,0.8399999737739563,0.0015727469526609639,1.0,9.999999747378752e-05
0.7863853096961975,0.8799999952316284,0.0012086323917174014,1.0,9.999999747378752e-05
0.7828240036964417,0.8799999952316284,0.00018713382805799484,1.0,9.999999747378752e-05
0.79468754529953,0.8799999952316284,0.00014946820465411292,1.0,9.999999747378752e-05
0.8311149597167968,0.8600000143051147,0.00028784486548829593,1.0,9.999999747378752e-05
0.8480254292488099,0.8600000143051147,0.00010701554047045647,1.0,9.999999747378752e-05
0.8553108096122741,0.8600000143051147,5.540537131309975e-05,1.0,9.999999747378752e-05
0.8481361985206604,0.8600000143051147,0.00011852285751956515,1.0,9.999999747378752e-05
0.8479804039001465,0.8600000143051147,0.00022752630611648782,1.0,9.999999747378752e-05
0.8508493185043335,0.8600000143051147,0.00015948264626786113,1.0,9.999999747378752e-05
0.8545667648315429,0.8600000143051147,0.00018339221478527178,1.0,9.999999747378752e-05
0.8568359613418579,0.8600000143051147,0.00017657998487266013,1.0,9.999999747378752e-05
0.8650640964508056,0.8600000143051147,0.00031023411524984114,1.0,9.999999747378752e-05
0.8716283202171325,0.8600000143051147,5.2287763082858874e-05,1.0,9.999999747378752e-05
0.876280677318573,0.8600000143051147,4.6694950924575096e-05,1.0,9.999999747378752e-05
0.8854719638824463,0.8600000143051147,8.906680404834333e-05,1.0,9.999999747378752e-05
0.8906008720397949,0.8600000143051147,7.07462098034739e-05,1.0,9.999999747378752e-05
0.8946043968200683,0.8600000143051147,8.554565902159083e-05,1.0,9.999999747378752e-05
0.9000538229942322,0.8600000143051147,5.1438295304251366e-05,1.0,9.999999747378752e-05
0.9027629375457764,0.8600000143051147,3.763347431231523e-05,1.0,9.999999747378752e-05
0.9086327672004699,0.8600000143051147,0.0001614202800737985,1.0,9.999999747378752e-05
0.9093619108200073,0.8600000143051147,6.011142641000333e-05,1.0,9.999999747378752e-05
0.9084820985794068,0.8600000143051147,5.309696216500015e-05,1.0,9.999999747378752e-05
0.933924651145935,0.8600000143051147,0.00036931408703821944,1.0,9.999999747378752e-05
0.9548973321914673,0.8600000143051147,0.00011452869002823718,1.0,9.999999747378752e-05
0.9580849885940552,0.8600000143051147,5.688145697604341e-05,1.0,9.999999747378752e-05
0.9695884466171265,0.8399999737739563,0.00021637414824908773,1.0,9.999999747378752e-05
0.9754435539245605,0.8399999737739563,4.1607138973631665e-05,1.0,9.999999747378752e-05
0.9729618787765503,0.8399999737739563,2.5983434056797705e-05,1.0,9.999999747378752e-05
0.9629994392395019,0.8600000143051147,0.00014122368065727642,1.0,9.999999747378752e-05
0.9403288960456848,0.8600000143051147,2.9281875504238998e-05,1.0,9.999999747378752e-05
0.9302263140678406,0.8600000143051147,3.364997619428323e-05,1.0,9.999999747378752e-05
0.9260593891143799,0.8600000143051147,0.00011344570039000246,1.0,9.999999747378752e-05
0.9229488492012023,0.8600000143051147,2.3770316192894825e-05,1.0,9.999999747378752e-05
0.9264281511306762,0.8600000143051147,0.00023599834348715377,1.0,9.999999747378752e-05
0.9449199318885804,0.8600000143051147,5.49548513845366e-05,1.0,9.999999747378752e-05
0.9488325357437134,0.8600000143051147,6.453378709920798e-05,1.0,9.999999747378752e-05
0.9486871480941772,0.8600000143051147,6.101766684878385e-05,1.0,9.999999747378752e-05
0.9472214698791503,0.8600000143051147,5.902738912482164e-05,1.0,9.999999747378752e-05
0.9443369626998901,0.8600000143051147,0.00019223323861297103,1.0,9.999999747378752e-05
0.9581786274909974,0.8600000143051147,0.0003183491151958151,1.0,9.999999747378752e-05
1.010023832321167,0.8399999737739563,2.6558122772257776e-05,1.0,9.999999747378752e-05
1.0242777824401856,0.8399999737739563,4.5666955702472475e-05,1.0,9.999999747378752e-05
1.0187425851821899,0.8399999737739563,5.261400219751522e-05,1.0,9.999999747378752e-05
1.0093639492988586,0.8399999737739563,2.8387898692017188e-05,1.0,9.999999747378752e-05
1.0089438438415528,0.8399999737739563,0.00010569870964900474,1.0,9.999999747378752e-05
1.0060855507850648,0.8399999737739563,2.500665582374495e-05,1.0,9.999999747378752e-05
1.0115662097930909,0.8399999737739563,0.00030974579367466505,1.0,9.999999747378752e-05
0.9866729259490967,0.8399999737739563,0.00030888912433510993,1.0,9.999999747378752e-05
0.9614430069923401,0.8399999737739563,5.624277227980201e-05,1.0,9.999999747378752e-05
0.9469078779220581,0.8399999737739563,8.390320904254623e-05,1.0,9.999999747378752e-05
0.9357925295829773,0.8600000143051147,3.1312023020291234e-05,1.0,9.999999747378752e-05
0.9315170526504517,0.8600000143051147,8.889884675227222e-05,1.0,9.999999747378752e-05
0.9305307745933533,0.8600000143051147,6.182165686823282e-05,1.0,9.999999747378752e-05
0.9688334703445435,0.8600000143051147,0.00042989564699382756,1.0,9.999999747378752e-05
1.0141499638557434,0.8399999737739563,6.307446137725492e-05,1.0,9.999999747378752e-05
1.0129150748252869,0.8399999737739563,0.00026196594299108253,1.0,9.999999747378752e-05
1.0037942051887512,0.8600000143051147,0.0002219779565166391,1.0,9.999999747378752e-05
0.9984780550003052,0.8399999737739563,0.0001423980190338625,1.0,9.999999747378752e-05
0.9868926763534546,0.8600000143051147,0.0002080339373605966,1.0,9.999999747378752e-05
0.9530668497085572,0.8600000143051147,5.816726607008604e-05,1.0,9.999999747378752e-05
0.9391141414642334,0.8600000143051147,4.125952482354478e-05,1.0,9.999999747378752e-05
0.9279248118400574,0.8600000143051147,8.941701844378258e-05,1.0,9.999999747378752e-05
0.9282806158065796,0.8600000143051147,5.975868689347408e-05,1.0,9.999999747378752e-05
0.9283911466598511,0.8600000143051147,6.00687878431927e-05,1.0,9.999999747378752e-05
0.9263572096824646,0.8600000143051147,0.00021303673611328122,1.0,9.999999747378752e-05
0.920103108882904,0.8600000143051147,0.00014806993831371074,1.0,9.999999747378752e-05
0.9115695595741272,0.8600000143051147,7.709738815719902e-05,1.0,9.999999747378752e-05
0.9129746198654175,0.8600000143051147,7.122470492504362e-05,1.0,9.999999747378752e-05
0.9144455909729003,0.8600000143051147,0.00010678108446882106,1.0,9.999999747378752e-05
0.9124879717826844,0.8600000143051147,6.055161620679428e-05,1.0,9.999999747378752e-05
0.917849063873291,0.8600000143051147,0.00012254518551344518,1.0,9.999999747378752e-05
0.9279461741447449,0.8600000143051147,5.1781441561615794e-05,1.0,9.999999747378752e-05
0.9300334453582764,0.8600000143051147,4.8001007962739094e-05,1.0,9.999999747378752e-05
0.9354762434959412,0.8600000143051147,4.524114820014802e-05,1.0,9.999999747378752e-05
0.9365454077720642,0.8600000143051147,9.148335338977631e-05,1.0,9.999999747378752e-05
0.9386218428611756,0.8600000143051147,6.145318411654443e-05,1.0,9.999999747378752e-05
0.9433293581008911,0.8600000143051147,4.097579540029983e-05,1.0,9.999999747378752e-05
0.9644799113273621,0.8600000143051147,0.00019947797281929524,1.0,9.999999747378752e-05
1.022132694721222,0.8399999737739563,0.0001770260643752408,1.0,9.999999747378752e-05
1.0394624710083007,0.8399999737739563,3.834801696029899e-05,1.0,9.999999747378752e-05
1.0389487743377686,0.8399999737739563,9.407622874277877e-05,1.0,9.999999747378752e-05
1.0366695046424865,0.8399999737739563,0.0002616187896364863,1.0,9.999999747378752e-05
1.049843192100525,0.8399999737739563,0.00037344314669098824,1.0,9.999999747378752e-05
1.0013751149177552,0.8600000143051147,5.5319651210083975e-05,1.0,9.999999747378752e-05
0.9846080064773559,0.8600000143051147,5.372042578528635e-05,1.0,9.999999747378752e-05
0.9817876219749451,0.8600000143051147,0.00011811818858404876,1.0,9.999999747378752e-05
1.0177374601364135,0.8600000143051147,0.00034599596610860315,1.0,9.999999747378752e-05
1.0413199186325073,0.8399999737739563,2.785514407150913e-05,1.0,9.999999747378752e-05
1.0334962725639343,0.8399999737739563,6.312174000413506e-05,1.0,9.999999747378752e-05
0.9400787115097046,0.8600000143051147,0.0020311276115535294,1.0,9.999999747378752e-05
0.9635244727134704,0.8399999737739563,0.0010151936705369736,1.0,9.999999747378752e-05
0.9866302728652954,0.8399999737739563,0.0027304440111038273,1.0,9.999999747378752e-05
0.9796927094459533,0.8600000143051147,0.0002113580376317259,1.0,9.999999747378752e-05
0.9477525949478149,0.8799999952316284,0.0010489682812476532,1.0,9.999999747378752e-05
1.0689752340316772,0.8600000143051147,0.0017191917962918525,1.0,9.999999747378752e-05
1.8158712029457091,0.800000011920929,0.00029420650971587745,1.0,9.999999747378752e-05
0.9785073280334473,0.8799999952316284,0.004375147036898852,1.0,9.999999747378752e-05
0.8088837504386902,0.8799999952316284,0.0011211615305001033,1.0,9.999999747378752e-05
0.7596527159214019,0.8799999952316284,0.00029087021612212994,1.0,9.999999747378752e-05
0.7487028300762176,0.8799999952316284,0.000174052313559514,1.0,9.999999747378752e-05
0.75884889960289,0.8799999952316284,0.00019425500013312558,1.0,9.999999747378752e-05
0.7794790387153625,0.8799999952316284,0.0003413049610344387,1.0,9.999999747378752e-05
0.7902642130851746,0.8799999952316284,0.00044659116506409193,1.0,9.999999747378752e-05
0.823406720161438,0.8799999952316284,0.00013537059367081384,1.0,9.999999747378752e-05
0.8551841974258423,0.8600000143051147,9.123847430601018e-05,1.0,9.999999747378752e-05
0.8779308319091796,0.8600000143051147,0.0001983420912438305,1.0,9.999999747378752e-05
0.9108381152153016,0.8600000143051147,0.00010173009777645348,1.0,9.999999747378752e-05
0.925223708152771,0.8399999737739563,7.664384584131767e-05,1.0,9.999999747378752e-05
0.9345675945281983,0.8399999737739563,8.034569218580145e-05,1.0,9.999999747378752e-05
0.9421649694442749,0.8399999737739563,8.901705873540778e-05,1.0,9.999999747378752e-05
0.9519314289093017,0.8399999737739563,9.626943192415638e-05,1.0,9.999999747378752e-05
0.9646186351776123,0.8399999737739563,0.0003193470337464532,1.0,9.999999747378752e-05
0.9815783977508545,0.8399999737739563,0.00011479729328129906,1.0,9.999999747378752e-05
1.1631433963775635,0.8199999928474426,0.0008387039186345646,1.0,9.999999747378752e-05
1.4671487867832185,0.800000011920929,5.507305932042073e-05,1.0,9.999999747378752e-05
1.4723988771438599,0.800000011920929,0.0003692351485369727,1.0,9.999999747378752e-05
1.4119566679000854,0.800000011920929,0.00017949763841897947,1.0,9.999999747378752e-05
1.2916123390197753,0.8199999928474426,0.00019836056426356664,1.0,9.999999747378752e-05
1.2032823801040649,0.8199999928474426,0.0001165219740869361,1.0,9.999999747378752e-05
1.1411251664161681,0.8199999928474426,4.36724818428047e-05,1.0,9.999999747378752e-05
1.0925433874130248,0.8399999737739563,0.000248475501757639,1.0,9.999999747378752e-05
1.033766233921051,0.8399999737739563,0.0003515877515383181,1.0,9.999999747378752e-05
0.9819281578063965,0.8399999737739563,4.147042473050533e-05,1.0,9.999999747378752e-05
0.9621510028839111,0.8399999737739563,3.0202386233213475e-05,1.0,9.999999747378752e-05
0.9530031442642212,0.8600000143051147,6.180296059028478e-05,1.0,9.999999747378752e-05
0.9366899132728577,0.8600000143051147,0.00015972287565091392,1.0,9.999999747378752e-05
0.9227394223213196,0.8600000143051147,9.278661773350904e-05,1.0,9.999999747378752e-05
0.9227075338363647,0.8600000143051147,0.00011500994196467218,1.0,9.999999747378752e-05
0.9238887548446655,0.8600000143051147,2.5596030081942444e-05,1.0,9.999999747378752e-05
0.9288266658782959,0.8600000143051147,0.00019358497052053282,1.0,9.999999747378752e-05
0.9523596167564392,0.8600000143051147,0.0001985902735441414,1.0,9.999999747378752e-05
1.0049598336219787,0.8399999737739563,0.0003207130981536466,1.0,9.999999747378752e-05
1.013937771320343,0.8399999737739563,7.743730752736155e-05,1.0,9.999999747378752e-05
1.0121966123580932,0.8399999737739563,8.556538468837971e-05,1.0,9.999999747378752e-05
1.003108310699463,0.8399999737739563,6.170730157464276e-05,1.0,9.999999747378752e-05
0.9925204157829285,0.8399999737739563,3.646247027973004e-05,1.0,9.999999747378752e-05
0.9765472292900086,0.8399999737739563,0.00010493355166545371,1.0,9.999999747378752e-05
0.9652535080909729,0.8399999737739563,3.683924492179358e-05,1.0,9.999999747378752e-05
0.9577542185783386,0.8399999737739563,2.1286180162860548e-05,1.0,9.999999747378752e-05
0.9517754912376404,0.8600000143051147,3.720254071595264e-05,1.0,9.999999747378752e-05
0.947969400882721,0.8600000143051147,3.644924217951484e-05,1.0,9.999999747378752e-05
0.9440524578094482,0.8600000143051147,5.6671122638363156e-05,1.0,9.999999747378752e-05
0.8742605209350586,0.8600000143051147,0.0004346622637967812,1.0,9.999999747378752e-05
0.8197267174720764,0.8799999952316284,2.8074454530724324e-05,1.0,9.999999747378752e-05
0.8103963017463685,0.8799999952316284,9.397246940352488e-05,1.0,9.999999747378752e-05
0.8156517505645752,0.8799999952316284,3.692221164328657e-05,1.0,9.999999747378752e-05
0.8253272891044616,0.8799999952316284,0.00011000837371284433,1.0,9.999999747378752e-05
0.8358332753181458,0.8799999952316284,3.2010724316933194e-05,1.0,9.999999747378752e-05
0.8414608120918274,0.8799999952316284,6.507985071948496e-05,1.0,9.999999747378752e-05
0.8487999916076661,0.8600000143051147,4.705375008597912e-05,1.0,9.999999747378752e-05
0.8561758637428284,0.8600000143051147,4.420736822794424e-05,1.0,9.999999747378752e-05
0.8629605174064636,0.8600000143051147,5.098594224364206e-05,1.0,9.999999747378752e-05
0.873442816734314,0.8600000143051147,8.702115937921917e-05,1.0,9.999999747378752e-05
0.8995965957641602,0.8600000143051147,0.0001561106339067919,1.0,9.999999747378752e-05
0.9143272161483764,0.8600000143051147,4.438248424776248e-05,1.0,9.999999747378752e-05
0.9228917360305786,0.8600000143051147,0.00017834630757533886,1.0,9.999999747378752e-05
0.9368339300155639,0.8399999737739563,7.632325623490033e-05,1.0,9.999999747378752e-05
0.9433175206184388,0.8399999737739563,4.244264907811157e-05,1.0,9.999999747378752e-05
0.9641846179962158,0.8399999737739563,0.0001611595060694526,1.0,9.999999747378752e-05
0.9826879978179932,0.8399999737739563,0.0001317760208621621,1.0,9.999999747378752e-05
0.9882030963897706,0.8399999737739563,4.6916945439079424e-05,1.0,9.999999747378752e-05
0.9894897818565369,0.8399999737739563,0.00011853722353407647,1.0,9.999999747378752e-05
0.987738060951233,0.8399999737739563,2.5735930739756442e-05,1.0,9.999999747378752e-05
0.9857974886894226,0.8399999737739563,7.32534035705612e-05,1.0,9.999999747378752e-05
0.9772710561752319,0.8399999737739563,0.00011653601090984011,1.0,9.999999747378752e-05
0.965170967578888,0.8399999737739563,4.3792794895125556e-05,1.0,9.999999747378752e-05
0.9606169700622559,0.8399999737739563,3.809676395576389e-05,1.0,9.999999747378752e-05
0.9359580159187317,0.8600000143051147,0.00035646630551582347,1.0,9.999999747378752e-05
0.9343376398086548,0.8600000143051147,0.00024060659861788736,1.0,9.999999747378752e-05
0.9367072105407714,0.8600000143051147,5.668677708854375e-05,1.0,9.999999747378752e-05
0.9433220863342285,0.8600000143051147,8.54248065934371e-05,1.0,9.999999747378752e-05
0.9511150479316711,0.8600000143051147,4.3136555404998944e-05,1.0,9.999999747378752e-05
0.9545041680335998,0.8600000143051147,3.5408186340646354e-05,1.0,9.999999747378752e-05
0.954019558429718,0.8600000143051147,7.789875935486635e-05,1.0,9.999999747378752e-05
0.9537112474441528,0.8600000143051147,3.650086864581681e-05,1.0,9.999999747378752e-05
0.9553610682487488,0.8600000143051147,3.4038672856695486e-05,1.0,9.999999747378752e-05
0.9574075818061829,0.8600000143051147,6.359306244121398e-05,1.0,9.999999747378752e-05
0.9559664011001587,0.8600000143051147,4.3614129708657856e-05,1.0,9.999999747378752e-05
0.9632813453674316,0.8600000143051147,3.840686090370582e-05,1.0,9.999999747378752e-05
0.9668572306632995,0.8600000143051147,4.85323932934989e-05,1.0,9.999999747378752e-05
0.9675915360450744,0.8600000143051147,2.8346524595690424e-05,1.0,9.999999747378752e-05
0.9644779086112976,0.8600000143051147,7.43247479931597e-05,1.0,9.999999747378752e-05
0.9668135523796082,0.8600000143051147,5.2815969320363364e-05,1.0,9.999999747378752e-05
0.9687256813049316,0.8600000143051147,6.904788453994115e-05,1.0,9.999999747378752e-05
0.9693528890609742,0.8600000143051147,2.436860843317845e-05,1.0,9.999999747378752e-05
0.9730266332626343,0.8600000143051147,6.397524502972373e-05,1.0,9.999999747378752e-05
0.9816805481910705,0.8600000143051147,0.00016177027071080375,1.0,9.999999747378752e-05
0.9820952892303467,0.8600000143051147,2.361266479056212e-05,1.0,9.999999747378752e-05
0.9393416762351989,0.8600000143051147,0.0002708564690692583,1.0,9.999999747378752e-05
0.9237763404846191,0.8799999952316284,7.329121153816231e-05,1.0,9.999999747378752e-05
0.9231130003929138,0.8600000143051147,9.792593480142386e-05,1.0,9.999999747378752e-05
0.9466983318328858,0.8600000143051147,0.00013853875211680133,1.0,9.999999747378752e-05
0.998726224899292,0.8600000143051147,0.00011925747537588904,1.0,9.999999747378752e-05
1.0153494477272034,0.8399999737739563,4.922128118778346e-05,1.0,9.999999747378752e-05
1.016919207572937,0.8399999737739563,2.7875662453880068e-05,1.0,9.999999747378752e-05
1.0134157180786132,0.8399999737739563,1.2920565404783702e-05,1.0,9.999999747378752e-05
1.0091137766838074,0.8399999737739563,6.482320832219557e-05,1.0,9.999999747378752e-05
1.005200743675232,0.8600000143051147,4.7131478549999886e-05,1.0,9.999999747378752e-05
1.0046611189842225,0.8600000143051147,4.7023767729115205e-05,1.0,9.999999747378752e-05
1.0110674262046815,0.8399999737739563,0.0001354033250208886,1.0,9.999999747378752e-05
1.015403723716736,0.8399999737739563,3.3725237608450696e-05,1.0,9.999999747378752e-05
1.012618350982666,0.8399999737739563,1.6466776969537023e-05,1.0,9.999999747378752e-05
1.008257222175598,0.8600000143051147,0.00011179486209584865,1.0,9.999999747378752e-05
1.009848141670227,0.8399999737739563,7.58661170493724e-05,1.0,9.999999747378752e-05
1.0043838381767274,0.8399999737739563,3.090723230343428e-05,1.0,9.999999747378752e-05
0.9998554468154908,0.8600000143051147,0.0001369307647109963,1.0,9.999999747378752e-05
0.9950143098831177,0.8600000143051147,0.000139899203782079,1.0,9.999999747378752e-05
0.9896286010742188,0.8600000143051147,5.490735202329233e-05,1.0,9.999999747378752e-05
0.9825640320777893,0.8600000143051147,4.827172210752906e-05,1.0,9.999999747378752e-05
0.9822133779525757,0.8600000143051147,4.315939038406214e-05,1.0,9.999999747378752e-05
0.98477543592453,0.8600000143051147,9.338110571661673e-05,1.0,9.999999747378752e-05
0.9883378505706787,0.8600000143051147,2.4573757400503382e-05,1.0,9.999999747378752e-05
0.9911739110946656,0.8600000143051147,3.872898610097763e-05,1.0,9.999999747378752e-05
0.9862081289291382,0.8600000143051147,7.168194936184591e-05,1.0,9.999999747378752e-05
0.9861764907836914,0.8600000143051147,4.39447933217707e-05,1.0,9.999999747378752e-05
0.9848632097244263,0.8600000143051147,5.008336293030879e-05,1.0,9.999999747378752e-05
0.983689832687378,0.8600000143051147,4.376304877951043e-05,1.0,9.999999747378752e-05
0.985774564743042,0.8600000143051147,5.823761489409662e-05,1.0,9.999999747378752e-05
0.9891608715057373,0.8600000143051147,4.7215199174388545e-05,1.0,9.999999747378752e-05
0.988494598865509,0.8600000143051147,4.2950042029588076e-05,1.0,9.999999747378752e-05
0.9966719746589661,0.8600000143051147,7.528117826041125e-05,1.0,9.999999747378752e-05
0.9994778990745544,0.8600000143051147,3.012594715983141e-05,1.0,9.999999747378752e-05
1.000231969356537,0.8600000143051147,2.9457678874678094e-05,1.0,9.999999747378752e-05
1.0394290804862976,0.8399999737739563,0.00030932753866181885,1.0,9.999999747378752e-05
1.069471573829651,0.8399999737739563,0.00012435319772521324,1.0,9.999999747378752e-05
1.0653071999549866,0.8399999737739563,9.783418581719162e-05,1.0,9.999999747378752e-05
1.0591999530792235,0.8399999737739563,3.725283520452649e-05,1.0,9.999999747378752e-05
1.0433359146118164,0.8399999737739563,3.06805990248904e-05,1.0,9.999999747378752e-05
0.9957509756088256,0.8600000143051147,0.0003276512399679632,1.0,9.999999747378752e-05
0.966785478591919,0.8600000143051147,5.5002431417960905e-05,1.0,9.999999747378752e-05
0.9575995206832886,0.8600000143051147,1.9367139339010463e-05,1.0,9.999999747378752e-05
0.9381428003311157,0.8600000143051147,0.0001910710106130864,1.0,9.999999747378752e-05
0.9423677325248718,0.8600000143051147,0.00010686446471481758,1.0,9.999999747378752e-05
0.9570767402648925,0.8600000143051147,6.786933672628948e-05,1.0,9.999999747378752e-05
0.9705265164375305,0.8600000143051147,3.702577546391694e-05,1.0,9.999999747378752e-05
0.9949888825416565,0.8600000143051147,0.0003442677409566386,1.0,9.999999747378752e-05
1.0818986296653748,0.8399999737739563,5.614731644527637e-05,1.0,9.999999747378752e-05
1.0929669618606568,0.8399999737739563,6.498601578641683e-05,1.0,9.999999747378752e-05
1.0780175805091858,0.8399999737739563,4.261229769326746e-05,1.0,9.999999747378752e-05
1.0559391617774962,0.8399999737739563,3.548127274370927e-05,1.0,9.999999747378752e-05
1.0365161061286927,0.8399999737739563,1.9724765297723935e-05,1.0,9.999999747378752e-05
1.0201242089271545,0.8399999737739563,3.963145732086559e-05,1.0,9.999999747378752e-05
1.0072757005691528,0.8399999737739563,1.4801787301621516e-05,1.0,9.999999747378752e-05
0.9973428845405579,0.8399999737739563,1.2093503619325929e-05,1.0,9.999999747378752e-05
0.9899768352508544,0.8399999737739563,2.4129058419930516e-05,1.0,9.999999747378752e-05
0.9841823935508728,0.8600000143051147,3.696030209994205e-05,1.0,9.999999747378752e-05
0.9807373881340027,0.8600000143051147,4.219701261263253e-05,1.0,9.999999747378752e-05
0.9825182795524597,0.8600000143051147,7.608231999256532e-05,1.0,9.999999747378752e-05
0.9922291994094848,0.8600000143051147,0.000296351551241969,1.0,9.999999747378752e-05
1.0031129002571106,0.8600000143051147,3.535139683208399e-05,1.0,9.999999747378752e-05
0.9960922718048095,0.8600000143051147,4.2980717717000515e-05,1.0,9.999999747378752e-05
0.964255440235138,0.8600000143051147,0.0001402486332153785,1.0,9.999999747378752e-05
0.9323327660560607,0.8600000143051147,4.651936083064356e-05,1.0,9.999999747378752e-05
0.9189899206161499,0.8600000143051147,4.5656626025447625e-05,1.0,9.999999747378752e-05
0.9114830017089843,0.8600000143051147,3.532332864324417e-05,1.0,9.999999747378752e-05
0.9131144404411315,0.8600000143051147,6.858708711661165e-05,1.0,9.999999747378752e-05
0.9199422836303711,0.8600000143051147,9.59118945274895e-05,1.0,9.999999747378752e-05
0.9280727744102478,0.8600000143051147,6.0907511044661075e-05,1.0,9.999999747378752e-05
0.9399942517280578,0.8600000143051147,4.39276779161446e-05,1.0,9.999999747378752e-05
0.9445945978164673,0.8600000143051147,2.5934562472684775e-05,1.0,9.999999747378752e-05
0.9446154236793518,0.8600000143051147,2.718891282711411e-05,1.0,9.999999747378752e-05
0.9450725555419922,0.8600000143051147,9.960750503523741e-05,1.0,9.999999747378752e-05
0.95440171957016,0.8600000143051147,4.638645546037878e-05,1.0,9.999999747378752e-05
0.9543152093887329,0.8600000143051147,1.2217459152452648e-05,1.0,9.999999747378752e-05
0.9548035502433777,0.8600000143051147,1.8338634299652766e-05,1.0,9.999999747378752e-05
0.9528021812438965,0.8600000143051147,2.0451332261473e-05,1.0,9.999999747378752e-05
0.953426194190979,0.8600000143051147,3.3426980553485916e-05,1.0,9.999999747378752e-05
0.9935887098312378,0.8600000143051147,0.0001268822821316462,1.0,9.999999747378752e-05
1.0074738144874573,0.8399999737739563,4.5020256675343265e-05,1.0,9.999999747378752e-05
1.0046736598014832,0.8399999737739563,3.2244483554677573e-05,1.0,9.999999747378752e-05
1.0089287042617798,0.8399999737739563,0.00012922110356612394,1.0,9.999999747378752e-05
1.0025653839111328,0.8399999737739563,2.664222270141181e-05,1.0,9.999999747378752e-05
1.0193594932556151,0.8399999737739563,0.00011763568400056102,1.0,9.999999747378752e-05
1.0190878510475159,0.8399999737739563,4.7861228995316194e-05,1.0,9.999999747378752e-05
1.008659791946411,0.8399999737739563,1.5954031186993235e-05,1.0,9.999999747378752e-05
1.0016031742095948,0.8399999737739563,2.489778819381172e-05,1.0,9.999999747378752e-05
0.9969645142555237,0.8399999737739563,4.907873205866054e-05,1.0,9.999999747378752e-05
0.9899502515792846,0.8600000143051147,3.063382450818608e-05,1.0,9.999999747378752e-05
0.9936184406280517,0.8600000143051147,9.382141170135582e-05,1.0,9.999999747378752e-05
0.9963449835777283,0.8600000143051147,6.049787166375609e-05,1.0,9.999999747378752e-05
0.9963833212852478,0.8600000143051147,3.891039698373788e-05,1.0,9.999999747378752e-05
0.9948781967163086,0.8600000143051147,0.0001553664191533244,1.0,9.999999747378752e-05
0.9945552706718445,0.8600000143051147,4.5312442534850564e-05,1.0,9.999999747378752e-05
0.9909412264823914,0.8600000143051147,1.604008127742418e-05,1.0,9.999999747378752e-05
0.9826967358589173,0.8600000143051147,7.06500338310434e-05,1.0,9.999999747378752e-05
0.9731227636337281,0.8600000143051147,0.0001068465065145574,1.0,9.999999747378752e-05
0.9759155631065368,0.8600000143051147,1.4455773134613992e-05,1.0,9.999999747378752e-05
0.9841941595077515,0.8399999737739563,0.0001351875171167194,1.0,9.999999747378752e-05
1.0063646197319032,0.8399999737739563,0.00010486345227036508,1.0,9.999999747378752e-05
1.023154377937317,0.8399999737739563,2.5064270380426025e-05,1.0,9.999999747378752e-05
1.0224843621253967,0.8399999737739563,2.3387738019664538e-05,1.0,9.999999747378752e-05
1.017474853992462,0.8399999737739563,6.562632577242767e-05,1.0,9.999999747378752e-05
1.013052749633789,0.8399999737739563,2.4119685792811652e-05,1.0,9.999999747378752e-05
1.0050540447235108,0.8399999737739563,3.397584432605072e-05,1.0,9.999999747378752e-05
0.9982320308685303,0.8399999737739563,0.0011462810732382422,1.0,9.999999747378752e-05
1.0263944149017334,0.8399999737739563,0.00014617552851632355,1.0,9.999999747378752e-05
1.031117820739746,0.8399999737739563,6.511393767141271e-05,1.0,9.999999747378752e-05
1.0163553476333618,0.8399999737739563,4.18795623772894e-05,1.0,9.999999747378752e-05
0.9930316567420959,0.8399999737739563,3.9289550613830215e-05,1.0,9.999999747378752e-05
0.9573657512664795,0.8399999737739563,0.00044310209232207854,1.0,9.999999747378752e-05
0.902421236038208,0.8399999737739563,0.00010159010419101833,1.0,9.999999747378752e-05
0.8682891607284546,0.8600000143051147,2.80276470220997e-05,1.0,9.999999747378752e-05
0.8753177046775817,0.8600000143051147,9.184012242258177e-05,1.0,9.999999747378752e-05
0.8795762300491333,0.8600000143051147,2.7419782236393074e-05,1.0,9.999999747378752e-05
0.8799371838569641,0.8600000143051147,7.775504618621199e-05,1.0,9.999999747378752e-05
0.8500443458557129,0.8799999952316284,4.349662203821936e-05,1.0,9.999999747378752e-05
