val_loss,val_accuracy,loss,accuracy,lr
0.6693140387535095,0.6600000262260437,0.5243300080299378,0.7300000190734863,0.0010000000474974513
0.7508512496948242,0.3400000035762787,0.44666177332401275,0.7699999809265137,0.0010000000474974513
0.8157063484191894,0.3400000035762787,0.35612210929393767,0.8500000238418579,0.0010000000474974513
0.91553715467453,0.3400000035762787,0.3667725369334221,0.8500000238418579,0.0010000000474974513
1.0790136814117433,0.3400000035762787,0.32887028604745866,0.8500000238418579,0.0010000000474974513
1.2131982088088988,0.3400000035762787,0.3117171242833138,0.8899999856948853,0.0010000000474974513
1.5516273975372314,0.3400000035762787,0.2762917369604111,0.8999999761581421,0.0010000000474974513
2.0510422706604006,0.3400000035762787,0.27204039245843886,0.8899999856948853,0.0010000000474974513
2.22988600730896,0.3400000035762787,0.272870808839798,0.8899999856948853,0.0010000000474974513
2.5909728527069094,0.3400000035762787,0.22013717740774155,0.8999999761581421,0.0010000000474974513
2.636522150039673,0.3400000035762787,0.22955096662044525,0.9100000262260437,0.0010000000474974513
2.9720069408416747,0.3400000035762787,0.1929817356169224,0.9399999976158142,0.0010000000474974513
3.162992334365845,0.3400000035762787,0.2552409455180168,0.9100000262260437,0.0010000000474974513
3.3217682361602785,0.3400000035762787,0.2086016032844782,0.9200000166893005,0.0010000000474974513
3.5869906902313233,0.3400000035762787,0.20945498049259187,0.949999988079071,0.0010000000474974513
3.6855967044830322,0.3400000035762787,0.23381637334823607,0.8799999952316284,0.0010000000474974513
3.5585041522979735,0.3400000035762787,0.15523041747510433,0.9599999785423279,0.0010000000474974513
3.5107157707214354,0.3400000035762787,0.1585200134664774,0.949999988079071,0.0010000000474974513
3.9365427494049072,0.3400000035762787,0.15143925584852697,0.9399999976158142,0.0010000000474974513
4.5517497062683105,0.3400000035762787,0.16501916870474814,0.9399999976158142,0.0010000000474974513
3.3851651668548586,0.3400000035762787,0.2373459555208683,0.8999999761581421,0.0010000000474974513
3.148084259033203,0.3400000035762787,0.17368007004261016,0.949999988079071,0.0010000000474974513
3.1558721542358397,0.3400000035762787,0.1982518456876278,0.9200000166893005,0.0010000000474974513
2.9640459060668944,0.3400000035762787,0.13029904365539552,0.9599999785423279,0.0010000000474974513
2.4007519245147706,0.3400000035762787,0.13972907103598117,0.949999988079071,0.0010000000474974513
2.83551344871521,0.3400000035762787,0.1344030674546957,0.949999988079071,0.0010000000474974513
2.5978055000305176,0.3400000035762787,0.08022294379770756,0.9800000190734863,0.0010000000474974513
2.534946632385254,0.3400000035762787,0.07640992477536201,0.9800000190734863,0.0010000000474974513
2.5771243572235107,0.3400000035762787,0.10038229189813137,0.949999988079071,0.0010000000474974513
1.6870190620422363,0.3400000035762787,0.14802787434309722,0.9399999976158142,0.0010000000474974513
2.3780831813812258,0.3400000035762787,0.12652888633310794,0.9700000286102295,0.0010000000474974513
2.2856847763061525,0.3400000035762787,0.11589510962367058,0.9599999785423279,0.0010000000474974513
2.030614137649536,0.3400000035762787,0.09367186557501554,0.9800000190734863,0.0010000000474974513
2.2055606603622437,0.3400000035762787,0.0942179024219513,0.9800000190734863,0.0010000000474974513
0.8357773065567017,0.6000000238418579,0.10378914382308721,0.9599999785423279,0.0010000000474974513
0.7718299508094788,0.6399999856948853,0.09921805076301098,0.9900000095367432,0.0010000000474974513
0.611940723657608,0.699999988079071,0.14294447377324104,0.949999988079071,0.0010000000474974513
0.6114009916782379,0.7799999713897705,0.21328751668334006,0.8799999952316284,0.0010000000474974513
0.41616891175508497,0.8399999737739563,0.18043951019644738,0.9200000166893005,0.0010000000474974513
0.49229954481124877,0.800000011920929,0.09469114728271961,0.9700000286102295,0.0010000000474974513
0.8137668013572693,0.6000000238418579,0.09744749255478383,0.9700000286102295,0.0010000000474974513
0.36066431403160093,0.8199999928474426,0.1313693393021822,0.9399999976158142,0.0010000000474974513
0.8497462034225464,0.6000000238418579,0.17699271151795984,0.9399999976158142,0.0010000000474974513
0.46651121973991394,0.800000011920929,0.07721729166805744,1.0,0.0010000000474974513
0.41337565779685975,0.8399999737739563,0.07249691700562835,0.9900000095367432,0.0010000000474974513
0.31639854311943055,0.8399999737739563,0.08789346404373646,0.9900000095367432,0.0010000000474974513
0.6026540696620941,0.7599999904632568,0.039888080954551694,1.0,0.0010000000474974513
0.5117230653762818,0.8399999737739563,0.0654785955324769,0.9700000286102295,0.0010000000474974513
0.26432984992861747,0.8999999761581421,0.05707528553903103,0.9800000190734863,0.0010000000474974513
3.481184196472168,0.3400000035762787,0.06355985440313816,1.0,0.0010000000474974513
0.794625186920166,0.7400000095367432,0.09047027267515659,0.9800000190734863,0.0010000000474974513
0.25629243403673174,0.9200000166893005,0.10576161984354257,0.9700000286102295,0.0010000000474974513
0.29079111516475675,0.8799999952316284,0.12857795208692552,0.9399999976158142,0.0010000000474974513
1.5849228382110596,0.4399999976158142,0.05736775286495686,0.9900000095367432,0.0010000000474974513
0.31954395696520804,0.8600000143051147,0.06720715817064046,0.9800000190734863,0.0010000000474974513
0.5062927812337875,0.8199999928474426,0.06059580631554127,0.9800000190734863,0.0010000000474974513
1.0946679174900056,0.6600000262260437,0.07139090988785028,0.9900000095367432,0.0010000000474974513
0.4867377355694771,0.8999999761581421,0.07270220601931214,0.9700000286102295,0.0010000000474974513
0.6311036586761475,0.7400000095367432,0.0896915765479207,0.9599999785423279,0.0010000000474974513
0.27039911448955534,0.8799999952316284,0.05877778483554721,0.9900000095367432,0.0010000000474974513
0.23349770605564119,0.8999999761581421,0.05568809527903795,0.9800000190734863,0.0010000000474974513
0.49316922277212144,0.8999999761581421,0.07802199581637978,0.9800000190734863,0.0010000000474974513
0.24852333441376687,0.9200000166893005,0.04544293712824583,0.9900000095367432,0.0010000000474974513
0.20205977112054824,0.8999999761581421,0.06832366213202476,0.9800000190734863,0.0010000000474974513
0.259632171317935,0.9200000166893005,0.0742495354730636,0.9800000190734863,0.0010000000474974513
0.29268945567309856,0.9200000166893005,0.07115141334943473,0.9800000190734863,0.0010000000474974513
0.8355963133275509,0.7799999713897705,0.10033178711310028,0.9700000286102295,0.0010000000474974513
0.28976571634411813,0.9200000166893005,0.06455584820359946,0.9800000190734863,0.0010000000474974513
1.1019484281539917,0.6399999856948853,0.02230998808518052,1.0,0.0010000000474974513
5.125167179107666,0.6600000262260437,0.10583941424265504,0.949999988079071,0.0010000000474974513
4.453340864181518,0.6600000262260437,0.14501529298722743,0.949999988079071,0.0010000000474974513
0.4190878654830158,0.8799999952316284,0.11885702265426516,0.9599999785423279,0.0010000000474974513
1.5877997994422912,0.5199999809265137,0.20882255993783475,0.9200000166893005,0.0010000000474974513
0.4354593887925148,0.8199999928474426,0.10952202910557389,0.9599999785423279,0.0010000000474974513
0.30853850655257703,0.8999999761581421,0.055224054399877785,0.9700000286102295,0.0010000000474974513
0.34129416234791277,0.8799999952316284,0.07039923798292876,0.9900000095367432,0.0010000000474974513
0.33607228882610796,0.8999999761581421,0.03564766701310873,1.0,0.0010000000474974513
0.27098647356033323,0.8999999761581421,0.04298801254481077,0.9900000095367432,0.0010000000474974513
0.2768568448722363,0.9200000166893005,0.05866033956408501,0.9800000190734863,0.0010000000474974513
0.5422580122947693,0.8199999928474426,0.025003582518547774,1.0,0.0010000000474974513
0.48877169787883756,0.800000011920929,0.02623949130065739,1.0,0.0010000000474974513
0.2442824974656105,0.8999999761581421,0.024304633121937515,1.0,0.0010000000474974513
0.37346758199855684,0.9200000166893005,0.028372303070500492,1.0,0.0010000000474974513
0.3644370178692043,0.9200000166893005,0.014767441060394048,1.0,0.0010000000474974513
0.3611466147005558,0.8799999952316284,0.018018460646271706,1.0,0.0010000000474974513
0.368981958180666,0.8600000143051147,0.009013193519786,1.0,0.0010000000474974513
0.2769082190468907,0.8999999761581421,0.02008719730656594,1.0,0.0010000000474974513
0.2783103000372648,0.8999999761581421,0.017496645962819458,1.0,0.0010000000474974513
0.29581552296876906,0.9200000166893005,0.01446499228477478,1.0,0.0010000000474974513
0.4284136114642024,0.9200000166893005,0.018982708128169178,0.9900000095367432,0.0010000000474974513
0.41869900450110437,0.8600000143051147,0.023388170846737923,0.9900000095367432,0.0010000000474974513
0.31273351367563007,0.9200000166893005,0.026874558813869954,1.0,0.0010000000474974513
0.2983923218678683,0.9200000166893005,0.02650192508008331,1.0,0.0010000000474974513
0.45486319437623024,0.8999999761581421,0.020953827421180904,1.0,0.0010000000474974513
0.645255183428526,0.8399999737739563,0.02309174605179578,1.0,0.0010000000474974513
0.3631479350849986,0.9200000166893005,0.010823343973606825,1.0,0.0010000000474974513
0.3822876114398241,0.8799999952316284,0.0071245329105295244,1.0,0.0010000000474974513
0.5605756781995297,0.8799999952316284,0.019456330209504814,1.0,0.0010000000474974513
0.915735948085785,0.699999988079071,0.026245361170731486,1.0,0.0010000000474974513
0.2941146332770586,0.8999999761581421,0.06593261342495679,0.9800000190734863,0.0010000000474974513
0.3570298550184816,0.8999999761581421,0.03599926959723234,0.9800000190734863,0.0010000000474974513
0.39797567841596904,0.9200000166893005,0.0327845842577517,0.9900000095367432,0.0010000000474974513
0.6773506058845669,0.8799999952316284,0.017408423218876125,1.0,0.0010000000474974513
0.34916184628382324,0.9200000166893005,0.010670076869428159,1.0,0.0010000000474974513
0.4121413050219417,0.9200000166893005,0.03105936273932457,1.0,0.0010000000474974513
5.983533334732056,0.6600000262260437,0.10599683225154877,0.9700000286102295,0.0010000000474974513
2.6437161922454835,0.4000000059604645,0.08303164169192315,0.949999988079071,0.0010000000474974513
0.34544249132741245,0.8999999761581421,0.06530333245173096,0.9800000190734863,0.0010000000474974513
0.3175684342160821,0.8799999952316284,0.035941229481250045,0.9900000095367432,0.0010000000474974513
0.3261204895330593,0.8999999761581421,0.04999467385932803,0.9800000190734863,0.0010000000474974513
0.40878305286169053,0.8600000143051147,0.03131696591153741,0.9900000095367432,0.0010000000474974513
1.804139494895935,0.699999988079071,0.06343603760469704,0.9599999785423279,0.0010000000474974513
7.69208869934082,0.6600000262260437,0.09530689110979437,0.9599999785423279,0.0010000000474974513
3.808879041671753,0.6600000262260437,0.08877410553395748,0.9599999785423279,0.0010000000474974513
0.5471128672361374,0.8199999928474426,0.10564182046800852,0.949999988079071,0.0010000000474974513
3.5028156280517577,0.3799999952316284,0.09331102329306304,0.9700000286102295,0.0010000000474974513
0.41120654018595815,0.9200000166893005,0.06780939530581236,0.9800000190734863,0.0010000000474974513
0.4722145021893084,0.9200000166893005,0.036439194809645414,1.0,0.0010000000474974513
0.3399161181412637,0.8999999761581421,0.013611260429024696,1.0,0.0010000000474974513
0.970343041419983,0.7400000095367432,0.020957978349179028,0.9900000095367432,0.0010000000474974513
0.7811801463365555,0.7799999713897705,0.017555197048932315,1.0,0.0010000000474974513
0.31214314997196196,0.8799999952316284,0.04014263744466007,0.9800000190734863,0.0010000000474974513
0.27055259291082623,0.8999999761581421,0.028877474227920176,1.0,0.0010000000474974513
0.42328412663191556,0.8799999952316284,0.07735773208551108,0.9700000286102295,0.0010000000474974513
0.2786777338013053,0.8999999761581421,0.0748084713704884,0.9599999785423279,0.0010000000474974513
0.7309551689773798,0.8399999737739563,0.07380798552185297,0.9800000190734863,0.0010000000474974513
1.1281120836734773,0.800000011920929,0.05782110719010234,0.9900000095367432,0.0010000000474974513
0.6041451141238212,0.8600000143051147,0.023259644606150688,1.0,0.0010000000474974513
0.5271073020994663,0.8799999952316284,0.06887066445779055,0.9900000095367432,0.0010000000474974513
0.38481812085956335,0.8999999761581421,0.0418495875550434,0.9900000095367432,0.0010000000474974513
0.7905326217412949,0.800000011920929,0.02580478321760893,1.0,0.0010000000474974513
0.7663983687758446,0.8799999952316284,0.011825868382584304,1.0,0.0010000000474974513
0.30848352890461683,0.8799999952316284,0.01401614691130817,1.0,0.0010000000474974513
0.4691405907273293,0.8999999761581421,0.006165753270033747,1.0,0.0010000000474974513
0.29721477497369053,0.8799999952316284,0.005574516556225717,1.0,0.0010000000474974513
0.2769709468819201,0.9200000166893005,0.006758590287063271,1.0,0.0010000000474974513
0.3789119556546211,0.8999999761581421,0.02068795923551079,1.0,0.0010000000474974513
0.4056866839528084,0.9200000166893005,0.03283489297609776,0.9800000190734863,0.0010000000474974513
0.38555687069892886,0.8600000143051147,0.017549826810136438,1.0,0.0010000000474974513
1.1293693780899048,0.6000000238418579,0.025280096696224063,0.9900000095367432,0.0010000000474974513
0.4604291707277298,0.8600000143051147,0.010301026422530413,1.0,0.0010000000474974513
0.4216258317232132,0.8799999952316284,0.015565392887219786,1.0,0.0010000000474974513
3.9518062114715575,0.6800000071525574,0.03608977829571813,0.9900000095367432,0.0010000000474974513
0.633568171042134,0.8999999761581421,0.06543753903824837,0.9700000286102295,0.0010000000474974513
0.4295732378959656,0.8600000143051147,0.07249787886394188,0.9800000190734863,0.0010000000474974513
0.40087501276284454,0.8799999952316284,0.038766212994232774,1.0,0.0010000000474974513
0.42535923714749513,0.9200000166893005,0.05792754050344229,0.9800000190734863,0.0010000000474974513
0.5735184596851468,0.8799999952316284,0.02096441697794944,0.9900000095367432,0.0010000000474974513
0.6208510618656874,0.8600000143051147,0.01814893864793703,1.0,0.0010000000474974513
0.4730158871039748,0.8600000143051147,0.010066285647917539,1.0,0.0010000000474974513
0.3259858289035037,0.9200000166893005,0.024188374157529325,1.0,0.0010000000474974513
0.3329638968221843,0.8999999761581421,0.014211950870230795,1.0,0.0010000000474974513
1.1511429071426391,0.7400000095367432,0.012883713026531041,1.0,0.0010000000474974513
1.0345150381326675,0.7400000095367432,0.00500645898282528,1.0,0.0010000000474974513
0.33873907225206495,0.8799999952316284,0.004954391403589398,1.0,0.0010000000474974513
0.3726515816524625,0.9200000166893005,0.004025847592856735,1.0,0.0010000000474974513
0.38525320747867225,0.9200000166893005,0.008504483941942453,1.0,0.0010000000474974513
0.9647054318338633,0.800000011920929,0.02030125979508739,1.0,0.0010000000474974513
3.2142186641693113,0.6800000071525574,0.019717370346188545,1.0,0.0010000000474974513
1.7047736883163451,0.7400000095367432,0.01938203228637576,1.0,0.0010000000474974513
0.318433471233584,0.9200000166893005,0.016387606970965862,0.9900000095367432,0.0010000000474974513
1.7026566505432128,0.5,0.0224096420686692,0.9900000095367432,0.0010000000474974513
0.30249769277870653,0.9200000166893005,0.04305859513115138,0.9800000190734863,0.0010000000474974513
1.2389685958623886,0.7799999713897705,0.09325585463084281,0.949999988079071,0.0010000000474974513
0.40868727220222356,0.9200000166893005,0.06778762615285813,0.9800000190734863,0.0010000000474974513
0.7466177582740784,0.7400000095367432,0.011987567320466042,1.0,0.0010000000474974513
0.4484908442944288,0.8600000143051147,0.013370833359658718,1.0,0.0010000000474974513
0.4984415794024244,0.9200000166893005,0.013093903864501044,1.0,0.0010000000474974513
0.41958943996578457,0.9200000166893005,0.007016986893722788,1.0,0.0010000000474974513
0.2975539634004235,0.8999999761581421,0.011857108620461076,1.0,0.0010000000474974513
0.32278419509530065,0.8799999952316284,0.004697399988071993,1.0,0.0010000000474974513
0.32771756453439593,0.9200000166893005,0.004021109611494466,1.0,0.0010000000474974513
0.3495274343295023,0.9200000166893005,0.0032782605150714515,1.0,0.0010000000474974513
0.3869053254602477,0.9200000166893005,0.003094496352423448,1.0,0.0010000000474974513
0.3710482893511653,0.9200000166893005,0.004251487980945967,1.0,0.0010000000474974513
0.3547997756395489,0.9200000166893005,0.004386487603187561,1.0,0.0010000000474974513
0.3605741311330348,0.9200000166893005,0.0018579634896013885,1.0,0.0010000000474974513
0.40486024687997996,0.9200000166893005,0.0037778291953145526,1.0,0.0010000000474974513
0.38657587743364275,0.9200000166893005,0.003807790185965132,1.0,0.0010000000474974513
0.37219050533603876,0.9200000166893005,0.007267501141177491,1.0,0.0010000000474974513
0.37495937186758965,0.9200000166893005,0.006502137085772119,1.0,0.0010000000474974513
0.3061738868011162,0.9200000166893005,0.0035643898518173955,1.0,0.0010000000474974513
0.3091847443021834,0.9200000166893005,0.004542248666984961,1.0,0.0010000000474974513
0.3438959835562855,0.9200000166893005,0.006777015898842364,1.0,0.0010000000474974513
0.38003204183187334,0.9200000166893005,0.004268025376950391,1.0,0.0010000000474974513
0.5032207433134317,0.8999999761581421,0.010846530774142594,1.0,0.0010000000474974513
0.4817272569052875,0.8799999952316284,0.021157233882695435,1.0,0.0010000000474974513
0.3679922617506236,0.9200000166893005,0.004828320915112272,1.0,0.0010000000474974513
0.38712879361119124,0.9200000166893005,0.006265835600788705,1.0,0.0010000000474974513
0.40339886415749787,0.9200000166893005,0.009932867815950885,1.0,0.0010000000474974513
0.3093921659514308,0.9200000166893005,0.004124918169691227,1.0,0.0010000000474974513
0.3048929641954601,0.8999999761581421,0.0023728211293928326,1.0,0.0010000000474974513
0.35484406657051293,0.9200000166893005,0.0015843658271478488,1.0,0.0010000000474974513
0.3608616888755932,0.9200000166893005,0.004055586285539902,1.0,0.0010000000474974513
0.35249363391194494,0.9200000166893005,0.0030082665965892375,1.0,0.0010000000474974513
0.42892638785997406,0.9200000166893005,0.006047597629367374,1.0,0.0010000000474974513
0.5369352139299736,0.9200000166893005,0.0025317819963674992,1.0,0.0010000000474974513
0.4748473292129347,0.9200000166893005,0.0025531689316267148,1.0,0.0010000000474974513
0.44427589169936255,0.9200000166893005,0.0019391920213820413,1.0,0.0010000000474974513
0.42313719608355316,0.9200000166893005,0.001385649456642568,1.0,0.0010000000474974513
0.3811972969677299,0.9200000166893005,0.0016438817227026447,1.0,0.0010000000474974513
0.3576927870279178,0.9200000166893005,0.0018296607086085714,1.0,0.0010000000474974513
0.3765370383509435,0.9200000166893005,0.0010703646737965755,1.0,0.0010000000474974513
0.3871996511472389,0.9200000166893005,0.0008513613836839795,1.0,0.0010000000474974513
0.372723043221049,0.9200000166893005,0.004257820099883247,1.0,0.0010000000474974513
0.3389669024385512,0.9200000166893005,0.0011288173271168489,1.0,0.0010000000474974513
0.4143322223331779,0.9200000166893005,0.01553767259392771,0.9900000095367432,0.0010000000474974513
0.5135969601920806,0.8999999761581421,0.11170812842319719,0.9599999785423279,0.0010000000474974513
1.8723160862922668,0.800000011920929,0.1353152234107256,0.9399999976158142,0.0010000000474974513
0.7758526718709617,0.8399999737739563,0.15807428872212767,0.9200000166893005,0.0010000000474974513
0.4732112428406253,0.8999999761581421,0.08359002582728862,0.9599999785423279,0.0010000000474974513
0.4461734161712229,0.8999999761581421,0.062260892055928704,0.9700000286102295,0.0010000000474974513
0.43951612878590823,0.8799999952316284,0.02663992205634713,1.0,0.0010000000474974513
0.6338159024715424,0.800000011920929,0.014902668911963702,1.0,0.0010000000474974513
0.9160968840122223,0.8600000143051147,0.18384506402071565,0.949999988079071,0.0010000000474974513
8.991156578063965,0.6600000262260437,0.1314997309818864,0.9599999785423279,0.0010000000474974513
6.091898250579834,0.6600000262260437,0.10522030703723431,0.9800000190734863,0.0010000000474974513
1.0149819132871927,0.800000011920929,0.051441479660570624,0.9900000095367432,0.0010000000474974513
0.519807999767363,0.8999999761581421,0.06276625078171491,0.9900000095367432,0.0010000000474974513
2.961096453666687,0.3400000035762787,0.05817942032590508,0.9900000095367432,0.0010000000474974513
5.611274528503418,0.3400000035762787,0.019884406367782503,1.0,0.0010000000474974513
1.5301915168762208,0.5400000214576721,0.016884483187459408,0.9900000095367432,0.0010000000474974513
0.44226170182228086,0.8799999952316284,0.013600004254840314,1.0,0.0010000000474974513
0.36805992340669036,0.8999999761581421,0.006081290973816067,1.0,0.0010000000474974513
0.4507890522480011,0.8799999952316284,0.021312770986696705,0.9900000095367432,0.0010000000474974513
0.504051923751831,0.8600000143051147,0.016379928612150253,1.0,0.0010000000474974513
0.4089476472698152,0.8999999761581421,0.013176166184712202,0.9900000095367432,0.0010000000474974513
0.40008496814407407,0.9200000166893005,0.008437047246843576,1.0,0.0010000000474974513
0.34460615292191504,0.8999999761581421,0.007555711915483698,1.0,0.0010000000474974513
0.35693344390019777,0.8799999952316284,0.004771547389100306,1.0,0.0010000000474974513
0.3821345007047057,0.9200000166893005,0.00891752277384512,1.0,0.0010000000474974513
0.4379102568607777,0.9200000166893005,0.006418408270110376,1.0,0.0010000000474974513
0.4541607894934714,0.9200000166893005,0.006279833795269951,1.0,0.0010000000474974513
0.43429620121605694,0.9200000166893005,0.0019358119607204571,1.0,0.0010000000474974513
0.3758852919563651,0.8999999761581421,0.012660839257296174,1.0,0.0010000000474974513
0.3221025872975588,0.9200000166893005,0.006471026089275256,1.0,0.0010000000474974513
0.3224759683944285,0.9200000166893005,0.0020633600011933594,1.0,0.0010000000474974513
0.5016614574240521,0.9200000166893005,0.009746485500363633,1.0,0.0010000000474974513
0.5134303235681728,0.9200000166893005,0.0063793898385483775,1.0,0.0010000000474974513
0.4899463751818985,0.9200000166893005,0.005923013389110565,1.0,0.0010000000474974513
0.4548562554176897,0.9200000166893005,0.0013268609152873978,1.0,0.0010000000474974513
0.41781936176121237,0.9200000166893005,0.0035823300771880896,1.0,0.0010000000474974513
0.45738503800239416,0.9200000166893005,0.003391233886941336,1.0,0.0010000000474974513
0.4296379880746827,0.9200000166893005,0.0026863696228247138,1.0,0.0010000000474974513
0.4407929670996964,0.9200000166893005,0.0020244946848833934,1.0,0.0010000000474974513
0.4464543140027672,0.9200000166893005,0.0021854123115190305,1.0,0.0010000000474974513
0.4473962703719735,0.9200000166893005,0.0009579982608556748,1.0,0.0010000000474974513
0.47128873856272546,0.9200000166893005,0.0026390441635157913,1.0,0.0010000000474974513
0.41586255074944345,0.9200000166893005,0.0051426098390948026,1.0,0.0010000000474974513
0.39268147728871555,0.9200000166893005,0.0013740043563302607,1.0,0.0010000000474974513
0.4110316592501476,0.9200000166893005,0.002384050196269527,1.0,0.0010000000474974513
0.4299910753965378,0.9200000166893005,0.0008070771727943793,1.0,0.0010000000474974513
0.447241345862858,0.9200000166893005,0.0011022646678611637,1.0,0.0010000000474974513
0.4452574560418725,0.9200000166893005,0.001002276610233821,1.0,0.0010000000474974513
0.4355489918030798,0.9200000166893005,0.0010132907613296994,1.0,0.0005000000237487257
0.4375778725370765,0.9200000166893005,0.0007063595752697438,1.0,0.0005000000237487257
0.4414504560641944,0.9200000166893005,0.0011377966875443235,1.0,0.0005000000237487257
0.5202586842700839,0.9200000166893005,0.006085217492363881,1.0,0.0005000000237487257
0.534382916125469,0.9200000166893005,0.0019290563024696894,1.0,0.0005000000237487257
0.521721068280749,0.9200000166893005,0.0013200279150623827,1.0,0.0005000000237487257
0.5123888990841806,0.9200000166893005,0.0015866243251366542,1.0,0.0005000000237487257
0.4995388811221346,0.9200000166893005,0.0016608408957836218,1.0,0.0005000000237487257
0.4738508271053433,0.9200000166893005,0.0013565444998675958,1.0,0.0005000000237487257
0.4784966617124155,0.9200000166893005,0.005685409311263356,1.0,0.0005000000237487257
0.4743518662173301,0.9200000166893005,0.0012889541409094817,1.0,0.0005000000237487257
0.46017780201509595,0.9200000166893005,0.0008374948229175061,1.0,0.0005000000237487257
0.46175255412235855,0.9200000166893005,0.0013067359177512117,1.0,0.0005000000237487257
0.4635639031883329,0.9200000166893005,0.001922474364982918,1.0,0.0005000000237487257
0.4778960983036086,0.9200000166893005,0.0011373928529792466,1.0,0.0005000000237487257
0.4861297328257933,0.9200000166893005,0.0008168388041667641,1.0,0.0005000000237487257
0.4928711299784482,0.9200000166893005,0.0012291758233914153,1.0,0.0005000000237487257
0.5020942666335031,0.9200000166893005,0.0012422907078871504,1.0,0.0005000000237487257
0.5047487324103713,0.9200000166893005,0.0004081731676706113,1.0,0.0005000000237487257
0.4857584087178111,0.9200000166893005,0.0015457244007848203,1.0,0.0005000000237487257
0.45840940847992895,0.9200000166893005,0.0023578222477226517,1.0,0.0005000000237487257
0.472967766248621,0.9200000166893005,0.001076097783516161,1.0,0.0005000000237487257
0.4788965248968452,0.9200000166893005,0.0005836739554069936,1.0,0.0005000000237487257
0.48334453522693366,0.9200000166893005,0.0008504750665451865,1.0,0.0005000000237487257
0.4764293221523985,0.9200000166893005,0.0008634741534478962,1.0,0.0005000000237487257
0.4735380750033073,0.9200000166893005,0.000652699479542207,1.0,0.0005000000237487257
0.4664104078896344,0.9200000166893005,0.0018730891504674218,1.0,0.0005000000237487257
0.45896805443335326,0.9200000166893005,0.0009992739498557058,1.0,0.0005000000237487257
0.47583797173574566,0.9200000166893005,0.001965201721031917,1.0,0.0005000000237487257
0.4816930931410752,0.9200000166893005,0.0007883479469455778,1.0,0.0005000000237487257
0.49199254816630855,0.9200000166893005,0.0007792393531417474,1.0,0.0005000000237487257
0.4968576529296115,0.9200000166893005,0.0012861419207183644,1.0,0.0005000000237487257
0.506296866806224,0.9200000166893005,0.0009343375808384735,1.0,0.0005000000237487257
0.5056935107801109,0.9200000166893005,0.0003937493944249582,1.0,0.0005000000237487257
0.5014298532274551,0.9200000166893005,0.0006805321354477201,1.0,0.0005000000237487257
0.5279136522905901,0.9200000166893005,0.003482246679777745,1.0,0.0005000000237487257
0.5267092418158427,0.9200000166893005,0.0005232355080806883,1.0,0.0005000000237487257
0.5195239059627056,0.9200000166893005,0.000530115937726805,1.0,0.0005000000237487257
0.5090628492645919,0.9200000166893005,0.000906895177467959,1.0,0.0005000000237487257
0.4918818504316732,0.9200000166893005,0.0006977575721975882,1.0,0.0005000000237487257
0.46949687460437417,0.9200000166893005,0.0009524207373033278,1.0,0.0005000000237487257
0.4622408145922236,0.9200000166893005,0.00033889928599819543,1.0,0.0005000000237487257
0.4606391849229112,0.9200000166893005,0.0007727581061772071,1.0,0.0005000000237487257
0.4629713013302535,0.9200000166893005,0.0011416910434491,1.0,0.0005000000237487257
0.44989108067238703,0.9200000166893005,0.0026857400196604432,1.0,0.0005000000237487257
0.43982628435478544,0.9200000166893005,0.0007173429905378726,1.0,0.0005000000237487257
0.44332111689727755,0.9200000166893005,0.0005816952550958376,1.0,0.0005000000237487257
0.4472993681090884,0.9200000166893005,0.0005368380268919281,1.0,0.0005000000237487257
0.4603925173985772,0.9200000166893005,0.001068831611337373,1.0,0.0005000000237487257
0.4647794988413807,0.9200000166893005,0.0003436581784626469,1.0,0.0005000000237487257
0.47413611093652436,0.9200000166893005,0.0016544071877433453,1.0,0.0005000000237487257
0.48803022485226394,0.9200000166893005,0.0003787320296396501,1.0,0.0005000000237487257
0.49643631672952326,0.9200000166893005,0.0012894214305561036,1.0,0.0005000000237487257
0.4958408155478537,0.9200000166893005,0.003112155818962492,1.0,0.0005000000237487257
0.4698056405119132,0.9200000166893005,0.0005842558253789321,1.0,0.0005000000237487257
0.5135032045422122,0.9200000166893005,0.002854328065586742,1.0,0.0005000000237487257
0.5488503629807383,0.9200000166893005,0.0008652360782434698,1.0,0.0005000000237487257
0.553310651902575,0.9200000166893005,0.0013986434911203104,1.0,0.0005000000237487257
0.5365210058167577,0.9200000166893005,0.0017127598912338726,1.0,0.0005000000237487257
0.49837125081103295,0.9200000166893005,0.000688863146933727,1.0,0.0005000000237487257
0.49009747327072545,0.9200000166893005,0.0009439347209990956,1.0,0.0005000000237487257
0.4874715995043516,0.9200000166893005,0.0005105534504764364,1.0,0.0005000000237487257
0.5056519851554185,0.9200000166893005,0.002223680205497658,1.0,0.0005000000237487257
0.575280063925311,0.9200000166893005,0.001150578117085388,1.0,0.0005000000237487257
0.5768459587008692,0.9200000166893005,0.000777304770599585,1.0,0.0005000000237487257
0.5479439368355088,0.9200000166893005,0.0008463438796752598,1.0,0.0005000000237487257
0.5101497137802653,0.9200000166893005,0.0008836696986691095,1.0,0.0005000000237487257
0.5039652205770835,0.9200000166893005,0.001276169742050115,1.0,0.0005000000237487257
0.4700790600851178,0.8999999761581421,0.006392032453732099,1.0,0.0005000000237487257
0.4763452060520649,0.8999999761581421,0.001370348085765727,1.0,0.0002500000118743628
0.4712909312453121,0.8999999761581421,0.0006031480443198234,1.0,0.0002500000118743628
0.4451894333236851,0.8999999761581421,0.001806517348450143,1.0,0.0002500000118743628
0.44603881498333064,0.8999999761581421,0.0010128668320248835,1.0,0.0002500000118743628
0.46349167107837275,0.9200000166893005,0.0010153596434975044,1.0,0.0002500000118743628
0.4791760469903238,0.9200000166893005,0.00030422656273003667,1.0,0.0002500000118743628
0.4863017459283583,0.9200000166893005,0.0007996527623618021,1.0,0.0002500000118743628
0.5046272310661152,0.9200000166893005,0.0028307288688665722,1.0,0.0002500000118743628
0.5240831621573306,0.9200000166893005,0.0005489676419529133,1.0,0.0002500000118743628
0.5189618600765243,0.9200000166893005,0.0008918940235162154,1.0,0.0002500000118743628
0.4986269673681818,0.9200000166893005,0.0006177050265250728,1.0,0.0002500000118743628
0.49140732709784063,0.9200000166893005,0.0011090495572716463,1.0,0.0002500000118743628
0.4899279704317451,0.9200000166893005,0.00047444856027141215,1.0,0.0002500000118743628
0.4904815264395438,0.9200000166893005,0.0003830673143966123,1.0,0.0002500000118743628
0.4919454909104388,0.9200000166893005,0.00023094938369467856,1.0,0.0002500000118743628
0.49423884603893387,0.9200000166893005,0.0007192575576482341,1.0,0.0002500000118743628
0.4974369406234473,0.9200000166893005,0.0004493263295444194,1.0,0.0002500000118743628
0.4998462887189817,0.9200000166893005,0.0009162979949906003,1.0,0.0002500000118743628
0.4947535588289611,0.9200000166893005,0.0006783971119148191,1.0,0.0002500000118743628
0.502252054103883,0.9200000166893005,0.001992399701703107,1.0,0.0002500000118743628
0.5162863765377551,0.9200000166893005,0.0004650095317629166,1.0,0.0002500000118743628
0.5079697570938151,0.9200000166893005,0.001227555682635284,1.0,0.0002500000118743628
0.49357976448955015,0.9200000166893005,0.0007053144036035519,1.0,0.0002500000118743628
0.4897835214971565,0.9200000166893005,0.001007661315088626,1.0,0.0002500000118743628
0.4919591495883651,0.9200000166893005,0.0004983708517102059,1.0,0.0002500000118743628
0.4913443015597295,0.9200000166893005,0.0005689561425242573,1.0,0.0002500000118743628
0.4957074336824007,0.9200000166893005,0.0013220090520917438,1.0,0.0002500000118743628
0.5086504505772609,0.9200000166893005,0.00023129443143261598,1.0,0.0002500000118743628
0.5102072344103362,0.9200000166893005,0.0005402677466918249,1.0,0.0002500000118743628
0.5125275304599199,0.9200000166893005,0.0003552999645762611,1.0,0.0002500000118743628
0.5165189095831011,0.9200000166893005,0.0034163204829383174,1.0,0.0002500000118743628
0.525269037799444,0.9200000166893005,0.0011532369797350838,1.0,0.0002500000118743628
0.5256995868461672,0.9200000166893005,0.0003099266112258192,1.0,0.0002500000118743628
0.5235809823323507,0.9200000166893005,0.0003098602253885474,1.0,0.0002500000118743628
0.5151899946678895,0.9200000166893005,0.00041993224076577464,1.0,0.0002500000118743628
0.5091130451939534,0.9200000166893005,0.0008979813661426306,1.0,0.0002500000118743628
0.49663222149247305,0.9200000166893005,0.0005787698682979681,1.0,0.0002500000118743628
0.4896392387803644,0.9200000166893005,0.0004271134195732884,1.0,0.0002500000118743628
0.48426383451442234,0.9200000166893005,0.00037029666200396607,1.0,0.0002500000118743628
0.48973436920787206,0.9200000166893005,0.00043524441571207717,1.0,0.0002500000118743628
0.49620152324205263,0.9200000166893005,0.0002578999825345818,1.0,0.0002500000118743628
0.5006170813576318,0.9200000166893005,0.0013523367197194602,1.0,0.0002500000118743628
0.5926388992113061,0.9200000166893005,0.002452798686135793,1.0,0.0002500000118743628
0.6327649486600422,0.9200000166893005,0.0004481591884541558,1.0,0.0002500000118743628
0.6256545575859491,0.9200000166893005,0.0005170428004930728,1.0,0.0002500000118743628
0.5902867945143953,0.9200000166893005,0.0014002553019963671,1.0,0.0002500000118743628
0.5645166794362012,0.9200000166893005,0.00039131687735789457,1.0,0.0002500000118743628
0.5374606290017254,0.9200000166893005,0.0012687232105236036,1.0,0.0002500000118743628
0.5163619387720246,0.9200000166893005,0.0008825673903629649,1.0,0.0002500000118743628
0.5088364308001474,0.9200000166893005,0.00018955663472297601,1.0,0.0002500000118743628
0.5313975879864301,0.9200000166893005,0.0019137851108098403,1.0,0.0002500000118743628
0.555767278035637,0.9200000166893005,0.00032160607988771515,1.0,0.0002500000118743628
0.5500113348767627,0.9200000166893005,0.0006575349871127401,1.0,0.0002500000118743628
0.5423277693800628,0.9200000166893005,0.00029320817047846505,1.0,0.0002500000118743628
0.5317176454409491,0.9200000166893005,0.00028344198144623076,1.0,0.0002500000118743628
0.5239060079853516,0.9200000166893005,0.001997325579577591,1.0,0.0002500000118743628
0.5151546894281637,0.9200000166893005,0.00041709848628670445,1.0,0.0002500000118743628
0.5041382790892385,0.9200000166893005,0.0007776538157486356,1.0,0.0002500000118743628
0.4916920620133169,0.9200000166893005,0.00035733531403820963,1.0,0.0002500000118743628
0.48869354856433345,0.9200000166893005,0.00047219354128174017,1.0,0.0002500000118743628
0.4795111770974472,0.9200000166893005,0.0012495920775108971,1.0,0.0002500000118743628
0.47867529022623784,0.9200000166893005,0.0004125879364437424,1.0,0.0002500000118743628
0.47679345033247955,0.9200000166893005,0.0004754826040880289,1.0,0.0002500000118743628
0.47488363639567976,0.9200000166893005,0.0009244103046512464,1.0,0.0002500000118743628
0.4785019845585339,0.9200000166893005,0.0011204884722246788,1.0,0.0002500000118743628
0.47951598739018664,0.9200000166893005,0.00027411033661337567,1.0,0.0002500000118743628
0.48081891099573115,0.9200000166893005,0.00031343739574367645,1.0,0.0002500000118743628
0.4934837670181878,0.9200000166893005,0.001025416903939913,1.0,0.0002500000118743628
0.4996594197058585,0.9200000166893005,0.0004276526342437137,1.0,0.0002500000118743628
0.5024120017245878,0.9200000166893005,0.00036055595955986064,1.0,0.0002500000118743628
0.50295528685092,0.9200000166893005,0.00036518874439934735,1.0,0.0002500000118743628
0.4999972336285282,0.9200000166893005,0.00028773588564945385,1.0,0.0002500000118743628
0.4958310574409552,0.9200000166893005,0.0005095065040222835,1.0,0.0002500000118743628
0.49939342077123,0.9200000166893005,0.0002817694090481382,1.0,0.0002500000118743628
0.5001059962552972,0.9200000166893005,0.000261054107977543,1.0,0.0002500000118743628
0.498959551617736,0.9200000166893005,0.00201095485008409,1.0,0.0002500000118743628
0.4966746822232381,0.9200000166893005,0.00028276549055590295,1.0,0.0002500000118743628
0.4954926890612114,0.9200000166893005,0.0010642484652635177,1.0,0.0002500000118743628
0.49392574016819707,0.9200000166893005,0.0014295595297880936,1.0,0.0002500000118743628
0.49498962111538275,0.9200000166893005,0.00039650325998081827,1.0,0.0002500000118743628
0.4928287677932531,0.9200000166893005,0.0004308836076234002,1.0,0.0002500000118743628
0.5436861059162765,0.9200000166893005,0.0020197902238578537,1.0,0.0002500000118743628
0.5843327840557322,0.9200000166893005,0.0002908816357376054,1.0,0.0002500000118743628
0.5874508833047003,0.9200000166893005,0.0005665818207489792,1.0,0.0002500000118743628
0.5691989608923904,0.9200000166893005,0.0004877175939327572,1.0,0.0002500000118743628
0.5572851036326029,0.9200000166893005,0.0002534857554564951,1.0,0.0002500000118743628
0.5592280166922137,0.9200000166893005,0.0010653400375304045,1.0,0.0002500000118743628
0.5585854054894298,0.9200000166893005,0.00027854880754603074,1.0,0.0002500000118743628
0.5142966707819141,0.9200000166893005,0.0016780361256678589,1.0,0.0002500000118743628
0.5065962495573331,0.9200000166893005,0.0010918590101937297,1.0,0.0002500000118743628
0.5207752929418348,0.9200000166893005,0.0002723232079006266,1.0,0.0002500000118743628
0.5268349757476244,0.9200000166893005,0.000359576047048904,1.0,0.0002500000118743628
0.5529950313444715,0.9200000166893005,0.0016085670755273894,1.0,0.0002500000118743628
0.5717743030982092,0.9200000166893005,0.0002308684794115834,1.0,0.0002500000118743628
0.5704862350597978,0.9200000166893005,0.0004131179957767017,1.0,0.0002500000118743628
0.5591879480052739,0.9200000166893005,0.0009126339988142718,1.0,0.0002500000118743628
0.549623786547454,0.9200000166893005,0.0002944153529824689,1.0,0.0002500000118743628
0.5428514708240982,0.9200000166893005,0.00031737417048134376,1.0,0.0002500000118743628
0.5392377726791893,0.9200000166893005,0.00046045564267842564,1.0,0.0002500000118743628
0.5305973816255574,0.9200000166893005,0.00029916118655819445,1.0,0.0002500000118743628
0.5278832446434535,0.9200000166893005,0.00032865734028746373,1.0,0.0001250000059371814
0.5313989041780587,0.9200000166893005,0.0006459211308538215,1.0,0.0001250000059371814
0.5296921472414396,0.9200000166893005,0.0002721920154726831,1.0,0.0001250000059371814
0.5261047925509047,0.9200000166893005,0.00022505954293592368,1.0,0.0001250000059371814
0.5243570406339131,0.9200000166893005,0.0001349360965832602,1.0,0.0001250000059371814
0.5223620191565714,0.9200000166893005,0.00022474145407613833,1.0,0.0001250000059371814
0.5220757991075515,0.9200000166893005,0.0003928438811271917,1.0,0.0001250000059371814
0.5228709125134628,0.9200000166893005,0.000415476848866092,1.0,0.0001250000059371814
0.524321645917371,0.9200000166893005,0.0005678294874087442,1.0,0.0001250000059371814
0.549599016434513,0.9200000166893005,0.001917542664159555,1.0,0.0001250000059371814
0.5857850325992331,0.9200000166893005,0.0019336835215653992,1.0,0.0001250000059371814
0.599087744706776,0.9200000166893005,0.0002324389777641045,1.0,0.0001250000059371814
0.5953756980132312,0.9200000166893005,0.00021009212723583915,1.0,0.0001250000059371814
0.5886342336074449,0.9200000166893005,0.0005183437511732336,1.0,0.0001250000059371814
0.5789275397430174,0.9200000166893005,0.0002551931160269305,1.0,0.0001250000059371814
0.5688221127842553,0.9200000166893005,0.00029239866307761986,1.0,0.0001250000059371814
0.5609914658882189,0.9200000166893005,0.0003687517739308532,1.0,0.0001250000059371814
0.5539597841328942,0.9200000166893005,0.0002845117815013509,1.0,0.0001250000059371814
0.5450392760743853,0.9200000166893005,0.00023388670233543963,1.0,0.0001250000059371814
0.5429846771352459,0.9200000166893005,0.0007682744795602048,1.0,0.0001250000059371814
0.5431289131985977,0.9200000166893005,0.00029037561689619905,1.0,0.0001250000059371814
0.5208535744750407,0.9200000166893005,0.0006891390228702221,1.0,0.0001250000059371814
0.5035263797733933,0.9200000166893005,0.0006427583306503948,1.0,0.0001250000059371814
0.49308524021180344,0.9200000166893005,0.0004152498113398906,1.0,0.0001250000059371814
0.49132909706095235,0.9200000166893005,0.00047354375856230037,1.0,0.0001250000059371814
0.4977041194506455,0.9200000166893005,0.0002157073438866064,1.0,0.0001250000059371814
0.5027110845432616,0.9200000166893005,0.00020075299617019481,1.0,0.0001250000059371814
0.5070609488408081,0.9200000166893005,0.0001954565232153982,1.0,0.0001250000059371814
0.512081329524517,0.9200000166893005,0.0003952606930397451,1.0,0.0001250000059371814
0.5236387350014411,0.9200000166893005,0.0012169374193035764,1.0,0.0001250000059371814
0.5434850667836144,0.9200000166893005,0.0010968602757202462,1.0,0.0001250000059371814
0.5490139585686847,0.9200000166893005,0.00025713237482705154,1.0,0.0001250000059371814
0.5510994310141542,0.9200000166893005,0.0005524128111574101,1.0,0.0001250000059371814
0.5501482443069108,0.9200000166893005,0.00022458326602645685,1.0,0.0001250000059371814
0.5466444672842045,0.9200000166893005,0.00028407196259649936,1.0,0.0001250000059371814
0.5444644986535423,0.9200000166893005,0.00018703059322433546,1.0,0.0001250000059371814
0.5411295676021837,0.9200000166893005,0.00030275057870312596,1.0,0.0001250000059371814
0.5415792562183924,0.9200000166893005,0.0009160401441477006,1.0,0.0001250000059371814
0.5575538313947618,0.9200000166893005,0.00024886286300898066,1.0,0.0001250000059371814
0.5607474143616855,0.9200000166893005,0.0002767575282632606,1.0,0.0001250000059371814
0.5580603355076164,0.9200000166893005,0.00022192529613676015,1.0,0.0001250000059371814
0.5462477888562717,0.9200000166893005,0.0006256160835619084,1.0,0.0001250000059371814
0.5418610877299216,0.9200000166893005,0.0004346558511315379,1.0,0.0001250000059371814
0.5409429031482432,0.9200000166893005,0.0001355951877485495,1.0,0.0001250000059371814
0.4562520519539248,0.9200000166893005,0.005657385766244261,1.0,0.0001250000059371814
0.7487347607966512,0.9200000166893005,0.013455874875944573,1.0,0.0001250000059371814
0.43385436199605465,0.9200000166893005,0.015658092217927334,0.9900000095367432,0.0001250000059371814
0.39925209982320664,0.9200000166893005,0.008435900873155332,1.0,0.0001250000059371814
0.5791196449034033,0.9200000166893005,0.0060747703129891304,1.0,0.0001250000059371814
0.6434973051145789,0.9200000166893005,0.0015446774727024605,1.0,0.0001250000059371814
0.6755508501373697,0.9200000166893005,0.01089508095246856,1.0,9.999999747378752e-05
0.6965449001989328,0.9200000166893005,0.0010465714964084326,1.0,9.999999747378752e-05
0.6816931501496584,0.9200000166893005,0.0010954579498502425,1.0,9.999999747378752e-05
0.6635090977186338,0.9200000166893005,0.0037009926614700816,1.0,9.999999747378752e-05
0.6271708366228268,0.9200000166893005,0.0009646258469729219,1.0,9.999999747378752e-05
0.5896394776413217,0.9200000166893005,0.0015634345858416055,1.0,9.999999747378752e-05
0.5540348455047933,0.9200000166893005,0.0031832038483116777,1.0,9.999999747378752e-05
0.5351378286955878,0.9200000166893005,0.0006330399395665154,1.0,9.999999747378752e-05
0.5242168075725203,0.9200000166893005,0.0011023774815839716,1.0,9.999999747378752e-05
0.5226293571671704,0.9200000166893005,0.000792160551645793,1.0,9.999999747378752e-05
0.5316267639485887,0.9200000166893005,0.058541260463243816,0.9800000190734863,9.999999747378752e-05
0.6205970634473488,0.8999999761581421,0.0018056081520626322,1.0,9.999999747378752e-05
0.645979554578662,0.8999999761581421,0.0033315273787593467,1.0,9.999999747378752e-05
0.6072859982494265,0.8999999761581421,0.005581805916153826,1.0,9.999999747378752e-05
0.6296533680055291,0.8799999952316284,0.01097074047429487,1.0,9.999999747378752e-05
0.501011606294196,0.9200000166893005,0.0033740506187314168,1.0,9.999999747378752e-05
0.43467453567427583,0.9200000166893005,0.004594814522715751,1.0,9.999999747378752e-05
0.4035447047383059,0.9200000166893005,0.0009322256148152519,1.0,9.999999747378752e-05
0.39035510188550687,0.8999999761581421,0.0035240530196460895,1.0,9.999999747378752e-05
0.38808419099077585,0.8799999952316284,0.001566173655737657,1.0,9.999999747378752e-05
0.39284198492532596,0.8799999952316284,0.0019591850781580434,1.0,9.999999747378752e-05
0.42174590304493903,0.8799999952316284,0.003882695105130551,1.0,9.999999747378752e-05
0.43999874843284487,0.8799999952316284,0.0016498250100994484,1.0,9.999999747378752e-05
0.43285739570856097,0.8799999952316284,0.0026643642006092703,1.0,9.999999747378752e-05
0.41778486606199294,0.8799999952316284,0.0019570998963899912,1.0,9.999999747378752e-05
0.41395664741285143,0.8799999952316284,0.002144331296585733,1.0,9.999999747378752e-05
0.4153721395879984,0.8999999761581421,0.0005564237064390909,1.0,9.999999747378752e-05
0.41596239728387446,0.8999999761581421,0.0009486286362516694,1.0,9.999999747378752e-05
0.4136522924702149,0.9200000166893005,0.0016430302923254203,1.0,9.999999747378752e-05
0.41603322148439476,0.9200000166893005,0.00025121368234977127,1.0,9.999999747378752e-05
0.4229268727300223,0.9200000166893005,0.0012887235039670485,1.0,9.999999747378752e-05
0.428131200815551,0.9200000166893005,0.0003884473699145019,1.0,9.999999747378752e-05
0.43370210099965334,0.9200000166893005,0.0006591765704797581,1.0,9.999999747378752e-05
0.43897395640378817,0.9200000166893005,0.0007891506706073414,1.0,9.999999747378752e-05
0.4399743122165091,0.9200000166893005,0.0005889993743039667,1.0,9.999999747378752e-05
0.44068671094137246,0.9200000166893005,0.0005318511401128489,1.0,9.999999747378752e-05
0.4416831345297396,0.9200000166893005,0.00071040355542209,1.0,9.999999747378752e-05
0.4420284527936019,0.9200000166893005,0.00044483381279860625,1.0,9.999999747378752e-05
0.4479365156614222,0.9200000166893005,0.001271762188116554,1.0,9.999999747378752e-05
0.4553460494062165,0.9200000166893005,0.0005355907163902884,1.0,9.999999747378752e-05
0.4599302073853323,0.9200000166893005,0.0008088255650363863,1.0,9.999999747378752e-05
0.4623470260004979,0.9200000166893005,0.0003958006029279204,1.0,9.999999747378752e-05
0.461151453354978,0.9200000166893005,0.0007090831226378213,1.0,9.999999747378752e-05
0.4592376818647608,0.9200000166893005,0.0002523070590541465,1.0,9.999999747378752e-05
0.4586317040870199,0.9200000166893005,0.00043269650414003993,1.0,9.999999747378752e-05
0.4647632728330791,0.9200000166893005,0.0008241207622631918,1.0,9.999999747378752e-05
0.4670493167504901,0.9200000166893005,0.0005068960606877226,1.0,9.999999747378752e-05
0.46440710230672266,0.9200000166893005,0.001630723998096073,1.0,9.999999747378752e-05
0.4648659505706746,0.9200000166893005,0.000666884448583005,1.0,9.999999747378752e-05
0.46746381002594717,0.9200000166893005,0.00019578127903514543,1.0,9.999999747378752e-05
0.468995330814505,0.9200000166893005,0.00016330063954228535,1.0,9.999999747378752e-05
0.4698536991374567,0.9200000166893005,0.00045778186904499307,1.0,9.999999747378752e-05
0.4716788864403497,0.9200000166893005,0.00016787994100013747,1.0,9.999999747378752e-05
0.47327846025000325,0.9200000166893005,0.0002264045506308321,1.0,9.999999747378752e-05
0.4740323944017291,0.9200000166893005,0.00044449528068071233,1.0,9.999999747378752e-05
0.4760652740427759,0.9200000166893005,0.00032562475935264955,1.0,9.999999747378752e-05
0.4781385951820994,0.9200000166893005,0.0014580916984414216,1.0,9.999999747378752e-05
0.48490710579790175,0.9200000166893005,0.0008499424631736475,1.0,9.999999747378752e-05
0.48345405200088865,0.9200000166893005,0.001233758315356681,1.0,9.999999747378752e-05
0.48012923705391586,0.9200000166893005,0.0002477526511938777,1.0,9.999999747378752e-05
0.47909940108656884,0.9200000166893005,0.0007882871410402004,1.0,9.999999747378752e-05
0.47082309950492346,0.9200000166893005,0.0008000967354746535,1.0,9.999999747378752e-05
0.4678080680721905,0.9200000166893005,0.0008069042400165926,1.0,9.999999747378752e-05
0.4680103684135247,0.9200000166893005,0.00026907450665021316,1.0,9.999999747378752e-05
0.4699674683040939,0.9200000166893005,0.00025170218668790767,1.0,9.999999747378752e-05
0.475404288736172,0.9200000166893005,0.0005699986453691963,1.0,9.999999747378752e-05
0.47781575500848705,0.9200000166893005,0.0007855273084715009,1.0,9.999999747378752e-05
0.4777070283482317,0.9200000166893005,0.0002709635635255836,1.0,9.999999747378752e-05
0.4781114608427742,0.9200000166893005,0.0002469523053150624,1.0,9.999999747378752e-05
0.48180536516883876,0.9200000166893005,0.000548654828889994,1.0,9.999999747378752e-05
0.4848156792490045,0.9200000166893005,0.0001535222378151957,1.0,9.999999747378752e-05
0.48230156799254476,0.9200000166893005,0.0003497303281619679,1.0,9.999999747378752e-05
0.4830608611606294,0.9200000166893005,0.0002627816138556227,1.0,9.999999747378752e-05
0.4852684780256823,0.9200000166893005,0.00034805808099918066,1.0,9.999999747378752e-05
0.4844128850934794,0.9200000166893005,0.00012101202082703821,1.0,9.999999747378752e-05
0.4855939158151159,0.9200000166893005,0.00036505025636870416,1.0,9.999999747378752e-05
0.48642218552995475,0.9200000166893005,0.0003771225834498182,1.0,9.999999747378752e-05
0.49256815809058024,0.9200000166893005,0.0009956608817446976,1.0,9.999999747378752e-05
0.4973607271560468,0.9200000166893005,0.00037123267156857764,1.0,9.999999747378752e-05
0.5021202324540355,0.9200000166893005,0.000296804508252535,1.0,9.999999747378752e-05
0.5048777746153064,0.9200000166893005,0.0002531324411393143,1.0,9.999999747378752e-05
0.5066559540864546,0.9200000166893005,0.0003116963056527311,1.0,9.999999747378752e-05
0.5072364322666545,0.9200000166893005,0.00023029649528325536,1.0,9.999999747378752e-05
0.5108665631501935,0.9200000166893005,0.0005248991896223742,1.0,9.999999747378752e-05
0.5183029868057929,0.9200000166893005,0.00042622454129741526,1.0,9.999999747378752e-05
0.5126535948598757,0.9200000166893005,0.00041138900414807724,1.0,9.999999747378752e-05
0.510169770772336,0.9200000166893005,0.00033808862572186625,1.0,9.999999747378752e-05
0.5112465064856224,0.9200000166893005,0.0005159532940524514,1.0,9.999999747378752e-05
0.5154935960308649,0.9200000166893005,0.0004981468136975309,1.0,9.999999747378752e-05
0.5263486975047271,0.9200000166893005,0.0011506658935104496,1.0,9.999999747378752e-05
0.5323968377255369,0.9200000166893005,0.0002428166932077147,1.0,9.999999747378752e-05
0.5314808454539162,0.9200000166893005,0.0004295520582672907,1.0,9.999999747378752e-05
0.5329033122456167,0.9200000166893005,0.0007592664431285811,1.0,9.999999747378752e-05
0.5277127792825922,0.9200000166893005,0.0004373328441943158,1.0,9.999999747378752e-05
0.527601183851948,0.9200000166893005,0.0005499031671206467,1.0,9.999999747378752e-05
0.5266011149389669,0.9200000166893005,0.0009172745878458955,1.0,9.999999747378752e-05
0.526158872054657,0.9200000166893005,0.00016163456602953375,1.0,9.999999747378752e-05
0.5252452549873852,0.9200000166893005,0.0008190028675016947,1.0,9.999999747378752e-05
0.5229828629875556,0.9200000166893005,0.0001222919916472165,1.0,9.999999747378752e-05
0.5212630142574198,0.9200000166893005,0.0012757374963257462,1.0,9.999999747378752e-05
0.5225165309908334,0.9200000166893005,0.0002918259378930088,1.0,9.999999747378752e-05
0.5236268423177535,0.9200000166893005,0.00047236629980034194,1.0,9.999999747378752e-05
0.5226521442469675,0.9200000166893005,0.00023478120383515488,1.0,9.999999747378752e-05
0.5184112775430549,0.9200000166893005,0.00019318940030643716,1.0,9.999999747378752e-05
0.5166508191410685,0.9200000166893005,0.0003949264413677156,1.0,9.999999747378752e-05
0.5167504280572757,0.9200000166893005,0.0005499518301803619,1.0,9.999999747378752e-05
0.5183940270449966,0.9200000166893005,0.00013786737217742485,1.0,9.999999747378752e-05
0.5501999791245907,0.9200000166893005,0.0016814484755741433,1.0,9.999999747378752e-05
0.5745261264441069,0.9200000166893005,0.0021855113258425264,1.0,9.999999747378752e-05
0.5767936536867637,0.9200000166893005,0.0007805658948200289,1.0,9.999999747378752e-05
0.570051911304472,0.9200000166893005,0.0001883794986497378,1.0,9.999999747378752e-05
0.5587559404782951,0.9200000166893005,0.0007637064445589203,1.0,9.999999747378752e-05
0.5447622917359695,0.9200000166893005,0.0008963806376414141,1.0,9.999999747378752e-05
0.5381752673885785,0.9200000166893005,0.0004905004167085281,1.0,9.999999747378752e-05
0.5300201097503304,0.9200000166893005,0.00023607506736880168,1.0,9.999999747378752e-05
0.5274019244476221,0.9200000166893005,0.0008607980562373996,1.0,9.999999747378752e-05
0.5232849402411375,0.9200000166893005,0.00033204614956048315,1.0,9.999999747378752e-05
0.5223711617931258,0.9200000166893005,0.000714586906178738,1.0,9.999999747378752e-05
0.5211030202859547,0.9200000166893005,0.0002022255186602706,1.0,9.999999747378752e-05
0.5174710918858182,0.9200000166893005,0.0003744897974684136,1.0,9.999999747378752e-05
0.5165757679089438,0.9200000166893005,0.00019896514277206734,1.0,9.999999747378752e-05
0.5160430330171948,0.9200000166893005,0.00028042327357979957,1.0,9.999999747378752e-05
0.513922440414899,0.9200000166893005,0.00028748609802278227,1.0,9.999999747378752e-05
0.5169484635407571,0.9200000166893005,0.00036392662696016487,1.0,9.999999747378752e-05
0.5909196011722088,0.8799999952316284,0.010480972710502101,1.0,9.999999747378752e-05
0.6383146796375513,0.8999999761581421,0.004474861203925684,1.0,9.999999747378752e-05
0.616421604831703,0.8999999761581421,0.0019364131585462019,1.0,9.999999747378752e-05
0.5894743496435695,0.8999999761581421,0.000993476776056923,1.0,9.999999747378752e-05
0.5570444153505377,0.8999999761581421,0.001536308671347797,1.0,9.999999747378752e-05
0.5509909156011418,0.9200000166893005,0.0006823775052907877,1.0,9.999999747378752e-05
0.5545291687594727,0.9200000166893005,0.0014170784823363646,1.0,9.999999747378752e-05
0.5637211458641105,0.9200000166893005,0.0013994764143717476,1.0,9.999999747378752e-05
0.5645775340381078,0.9200000166893005,0.0004325618778239004,1.0,9.999999747378752e-05
0.5628915305947885,0.9200000166893005,0.0009153713603154756,1.0,9.999999747378752e-05
0.495564396266127,0.9200000166893005,0.008547998280846514,1.0,9.999999747378752e-05
0.42286525466479363,0.8999999761581421,0.001040219989226898,1.0,9.999999747378752e-05
0.45969433095306156,0.8999999761581421,0.003883822642819723,1.0,9.999999747378752e-05
0.49080380285158753,0.8999999761581421,0.00027007937751477584,1.0,9.999999747378752e-05
0.49953395426273345,0.8999999761581421,0.00025649434865044897,1.0,9.999999747378752e-05
0.4975610776804388,0.8999999761581421,0.0004638954022084363,1.0,9.999999747378752e-05
0.47687941712792964,0.8999999761581421,0.0015000672778114677,1.0,9.999999747378752e-05
0.4923948300536722,0.9200000166893005,0.0003354340009536827,1.0,9.999999747378752e-05
0.5033253296045587,0.9200000166893005,0.00026940431271214036,1.0,9.999999747378752e-05
0.5071729894378223,0.9200000166893005,0.00030319102879730055,1.0,9.999999747378752e-05
0.5082944115391002,0.9200000166893005,0.00031906610165606254,1.0,9.999999747378752e-05
0.51117193371756,0.9200000166893005,0.0004493908927543089,1.0,9.999999747378752e-05
0.5084117117454298,0.9200000166893005,0.00115206669215695,1.0,9.999999747378752e-05
0.5116801521973684,0.9200000166893005,0.0004287124000256881,1.0,9.999999747378752e-05
0.5217729824362323,0.9200000166893005,0.0004993237267626683,1.0,9.999999747378752e-05
0.5295977246249095,0.9200000166893005,0.0006314165530056925,1.0,9.999999747378752e-05
0.5281007801298984,0.9200000166893005,0.0001170851530332584,1.0,9.999999747378752e-05
0.5260949975287076,0.9200000166893005,0.00013956981747469398,1.0,9.999999747378752e-05
0.5247427464753855,0.9200000166893005,0.0006498821094282903,1.0,9.999999747378752e-05
0.5292091690935194,0.9200000166893005,0.0004981136036803946,1.0,9.999999747378752e-05
0.5304547299921978,0.9200000166893005,0.0003513128525810316,1.0,9.999999747378752e-05
0.534531241178047,0.9200000166893005,0.00036413763664313594,1.0,9.999999747378752e-05
0.5398309886455536,0.9200000166893005,0.00023043073560984338,1.0,9.999999747378752e-05
0.5483674616902136,0.9200000166893005,0.0009524435758066829,1.0,9.999999747378752e-05
0.5699352637224365,0.9200000166893005,0.0015849646475544431,1.0,9.999999747378752e-05
0.5644690301676747,0.9200000166893005,0.00016337590277544224,1.0,9.999999747378752e-05
0.5616632705146912,0.9200000166893005,0.0004756995716888923,1.0,9.999999747378752e-05
0.5556103790760971,0.9200000166893005,0.00022765571957279463,1.0,9.999999747378752e-05
0.5468193600594532,0.9200000166893005,0.0002742649729043478,1.0,9.999999747378752e-05
0.5465802594437263,0.9200000166893005,0.00039298836072703124,1.0,9.999999747378752e-05
0.5452752042096108,0.9200000166893005,0.00024691287180758084,1.0,9.999999747378752e-05
0.5447800502646715,0.9200000166893005,0.00021121621830388904,1.0,9.999999747378752e-05
0.5437516638194211,0.9200000166893005,0.00026163365982938557,1.0,9.999999747378752e-05
0.5417626833659597,0.9200000166893005,0.00014947578056307976,1.0,9.999999747378752e-05
0.5415544536022935,0.9200000166893005,0.0003028156330401544,1.0,9.999999747378752e-05
0.5416219127713703,0.9200000166893005,0.00025166607338178437,1.0,9.999999747378752e-05
0.5395554401678965,0.9200000166893005,0.0002666098702320596,1.0,9.999999747378752e-05
0.5426381550030783,0.9200000166893005,0.0003223045998311136,1.0,9.999999747378752e-05
0.5448747004207689,0.9200000166893005,0.00045900623845227526,1.0,9.999999747378752e-05
0.5476481147808954,0.9200000166893005,0.00021963803774269764,1.0,9.999999747378752e-05
0.5488167225033976,0.9200000166893005,0.0001728835402900586,1.0,9.999999747378752e-05
0.5489004400442354,0.9200000166893005,0.00023280141031136736,1.0,9.999999747378752e-05
0.5484071304788813,0.9200000166893005,0.0003719603460922372,1.0,9.999999747378752e-05
0.5424756844236981,0.9200000166893005,0.00024197064922191203,1.0,9.999999747378752e-05
0.5384618980926461,0.9200000166893005,0.0007262175369760371,1.0,9.999999747378752e-05
0.5413567079463973,0.9200000166893005,0.0002949385812826222,1.0,9.999999747378752e-05
0.5549386131460778,0.9200000166893005,0.0006996092433837475,1.0,9.999999747378752e-05
0.5599471452296712,0.9200000166893005,0.00028294350595388097,1.0,9.999999747378752e-05
0.5613356281945017,0.9200000166893005,0.00010439327234053053,1.0,9.999999747378752e-05
0.5606502209440805,0.9200000166893005,0.00022806975030107424,1.0,9.999999747378752e-05
0.5594439562235494,0.9200000166893005,0.00017189636091643478,1.0,9.999999747378752e-05
0.5630004105390981,0.9200000166893005,0.000348580412537558,1.0,9.999999747378752e-05
0.5832319873792585,0.9200000166893005,0.0015378945085103624,1.0,9.999999747378752e-05
0.6131995861185715,0.9200000166893005,0.00012894073661300353,1.0,9.999999747378752e-05
0.6163524743518792,0.9200000166893005,0.00021556473948294296,1.0,9.999999747378752e-05
0.6136174499522895,0.9200000166893005,0.000471403524352354,1.0,9.999999747378752e-05
0.6054207288252655,0.9200000166893005,0.00022486251655209343,1.0,9.999999747378752e-05
0.5973032134817913,0.9200000166893005,0.00041019346899702215,1.0,9.999999747378752e-05
0.5934345865098294,0.9200000166893005,0.0003396536638319958,1.0,9.999999747378752e-05
0.5921806480153464,0.9200000166893005,0.0005921263098571216,1.0,9.999999747378752e-05
0.5996926969208289,0.9200000166893005,0.00038369564590539084,1.0,9.999999747378752e-05
0.5912755964673124,0.9200000166893005,0.0003554044003976742,1.0,9.999999747378752e-05
0.5871526295377407,0.9200000166893005,0.0004293320751457941,1.0,9.999999747378752e-05
0.5883423799066805,0.9200000166893005,0.0003780693954468006,1.0,9.999999747378752e-05
0.5868566940538585,0.9200000166893005,0.00011091045089415275,1.0,9.999999747378752e-05
0.580493009305792,0.9200000166893005,0.0003789066471654223,1.0,9.999999747378752e-05
0.5738060014205985,0.9200000166893005,0.00015663833401049487,1.0,9.999999747378752e-05
0.5722175791917834,0.9200000166893005,0.0002045891968009528,1.0,9.999999747378752e-05
0.5689356766495621,0.9200000166893005,0.0002666321659489768,1.0,9.999999747378752e-05
0.5695289345865604,0.9200000166893005,0.0009750208657351323,1.0,9.999999747378752e-05
0.5743826291000005,0.9200000166893005,0.0002774083084659651,1.0,9.999999747378752e-05
0.5752964634797536,0.9200000166893005,0.00021985580860928167,1.0,9.999999747378752e-05
0.5712918167351745,0.9200000166893005,0.0002137073726771632,1.0,9.999999747378752e-05
0.5549053717637434,0.9200000166893005,0.0012145378730565426,1.0,9.999999747378752e-05
0.542308578552911,0.9200000166893005,0.00048753068731457463,1.0,9.999999747378752e-05
0.5336788855027408,0.9200000166893005,8.091213603620418e-05,1.0,9.999999747378752e-05
0.5333994110522327,0.9200000166893005,0.00041003549449669663,1.0,9.999999747378752e-05
0.5344980869384017,0.9200000166893005,0.00018588898037705804,1.0,9.999999747378752e-05
0.5316729036683683,0.9200000166893005,0.00019642511033453048,1.0,9.999999747378752e-05
0.5314025580097222,0.9200000166893005,0.00014187040869728662,1.0,9.999999747378752e-05
0.5328402949206066,0.9200000166893005,0.0001224820407514926,1.0,9.999999747378752e-05
0.5325446891423781,0.9200000166893005,0.00020865936130576301,1.0,9.999999747378752e-05
0.5321192492032424,0.9200000166893005,0.00010210500695393421,1.0,9.999999747378752e-05
0.5356108478503302,0.9200000166893005,0.0003084872427280061,1.0,9.999999747378752e-05
0.5371343822509516,0.9200000166893005,0.0005463305940793361,1.0,9.999999747378752e-05
0.540358985090279,0.9200000166893005,0.00011319989935145713,1.0,9.999999747378752e-05
0.5441879700578284,0.9200000166893005,0.0003844444072456099,1.0,9.999999747378752e-05
0.5471913374552969,0.9200000166893005,0.00011848086433019489,1.0,9.999999747378752e-05
0.5842002913792385,0.9200000166893005,0.004253058345875615,1.0,9.999999747378752e-05
0.6508066097041592,0.9200000166893005,0.0007266937747772318,1.0,9.999999747378752e-05
0.6465990870550741,0.9200000166893005,0.001568772998143686,1.0,9.999999747378752e-05
0.6346045342099387,0.9200000166893005,0.00042877214164036557,1.0,9.999999747378752e-05
0.612561717350036,0.9200000166893005,0.0003179166553309187,1.0,9.999999747378752e-05
0.5966510144207859,0.9200000166893005,0.00033918299595825374,1.0,9.999999747378752e-05
0.5836713784839958,0.9200000166893005,0.000145541462188703,1.0,9.999999747378752e-05
0.5711734893411631,0.9200000166893005,0.00035288649378344416,1.0,9.999999747378752e-05
0.5638923363992945,0.9200000166893005,0.00022661440598312766,1.0,9.999999747378752e-05
0.5590437963925069,0.9200000166893005,0.00016317423105647322,1.0,9.999999747378752e-05
0.5549505207163747,0.9200000166893005,0.0001390852449731028,1.0,9.999999747378752e-05
0.49898551470250824,0.9200000166893005,0.004402684925298672,1.0,9.999999747378752e-05
0.3888360385783017,0.8999999761581421,0.0007464657272066688,1.0,9.999999747378752e-05
0.37267982489429413,0.8999999761581421,0.0014494186005322262,1.0,9.999999747378752e-05
0.5495146657747683,0.9200000166893005,0.005093733502144459,1.0,9.999999747378752e-05
0.6370468089357019,0.9200000166893005,0.0003951710590627044,1.0,9.999999747378752e-05
0.6465313054039143,0.9200000166893005,0.0007524762841057964,1.0,9.999999747378752e-05
0.6284355874231551,0.9200000166893005,0.0003798984962486429,1.0,9.999999747378752e-05
0.6090644247247837,0.9200000166893005,0.0004161756420216989,1.0,9.999999747378752e-05
0.6049241703585722,0.9200000166893005,0.004803357757555205,1.0,9.999999747378752e-05
0.5919637159066042,0.9200000166893005,0.0012290245103940833,1.0,9.999999747378752e-05
0.5612601844622986,0.9200000166893005,0.0004329054314439418,1.0,9.999999747378752e-05
0.5281475747236982,0.9200000166893005,0.0005288752465276048,1.0,9.999999747378752e-05
0.48037377014989036,0.9200000166893005,0.0013806772825773806,1.0,9.999999747378752e-05
0.4607840919314185,0.9200000166893005,0.00019328557355038355,1.0,9.999999747378752e-05
0.45308997483807617,0.9200000166893005,0.00030076650728005916,1.0,9.999999747378752e-05
0.44505937515641564,0.9200000166893005,0.0003724269354279386,1.0,9.999999747378752e-05
0.44112812785315325,0.9200000166893005,0.00017154040979221462,1.0,9.999999747378752e-05
0.4419002621609252,0.9200000166893005,0.0002982505182444584,1.0,9.999999747378752e-05
0.5119579973747023,0.9200000166893005,0.004782152421103092,1.0,9.999999747378752e-05
0.5399192884680815,0.9200000166893005,0.0015463054012798238,1.0,9.999999747378752e-05
0.5299588072986807,0.9200000166893005,0.0007122198294382542,1.0,9.999999747378752e-05
0.5217656405700837,0.9200000166893005,0.0003741615353646921,1.0,9.999999747378752e-05
0.5157897462224355,0.9200000166893005,0.0005302543162542861,1.0,9.999999747378752e-05
0.5122675694379722,0.9200000166893005,0.0003861062261421466,1.0,9.999999747378752e-05
0.535167979032849,0.9200000166893005,0.0010925124679488363,1.0,9.999999747378752e-05
0.5543599372351309,0.9200000166893005,0.0002000257412873907,1.0,9.999999747378752e-05
0.5479176645138069,0.9200000166893005,0.0003559822835086379,1.0,9.999999747378752e-05
0.5390789124910953,0.9200000166893005,0.0007402663210086758,1.0,9.999999747378752e-05
0.5330677689780714,0.9200000166893005,0.0001424627587766736,1.0,9.999999747378752e-05
0.529379668290494,0.9200000166893005,0.00014461609971476718,1.0,9.999999747378752e-05
0.5267558795487275,0.9200000166893005,0.00018108248186763377,1.0,9.999999747378752e-05
0.5243890750542051,0.9200000166893005,0.00012379643994790966,1.0,9.999999747378752e-05
0.5236095161701086,0.9200000166893005,0.00018505265506973956,1.0,9.999999747378752e-05
0.5232718679268146,0.9200000166893005,0.0005804495660413523,1.0,9.999999747378752e-05
0.5495739957143086,0.9200000166893005,0.0013038007284194464,1.0,9.999999747378752e-05
0.5506078604084905,0.9200000166893005,0.00035377689791857845,1.0,9.999999747378752e-05
0.5456593698065262,0.9200000166893005,0.00014039465004316297,1.0,9.999999747378752e-05
0.5430879002960864,0.9200000166893005,0.00026341864413552684,1.0,9.999999747378752e-05
0.5396427878382383,0.9200000166893005,0.00019889458126272076,1.0,9.999999747378752e-05
0.5337437329988461,0.9200000166893005,0.00050077932082786,1.0,9.999999747378752e-05
0.5268011594918789,0.9200000166893005,0.00016629845958959777,1.0,9.999999747378752e-05
0.523359142433037,0.9200000166893005,0.00025561736401868984,1.0,9.999999747378752e-05
0.5206715592386899,0.9200000166893005,0.00014286497607827187,1.0,9.999999747378752e-05
0.5175968471186934,0.9200000166893005,0.0001078767661965685,1.0,9.999999747378752e-05
0.5153422450937797,0.9200000166893005,0.00019950274872826412,1.0,9.999999747378752e-05
0.5163501190894749,0.9200000166893005,0.00020210994807712268,1.0,9.999999747378752e-05
0.5182384541578358,0.9200000166893005,0.0007263563751621404,1.0,9.999999747378752e-05
0.516907797663589,0.9200000166893005,0.0002610943005493027,1.0,9.999999747378752e-05
0.5246551369607915,0.9200000166893005,0.0004203252097795485,1.0,9.999999747378752e-05
0.5258162970450939,0.9200000166893005,0.0002113483969878871,1.0,9.999999747378752e-05
0.5211448625836056,0.9200000166893005,0.00017054583267963607,1.0,9.999999747378752e-05
0.5177016092988197,0.9200000166893005,0.0002854357877367875,1.0,9.999999747378752e-05
0.5159158299502451,0.9200000166893005,7.34485965949716e-05,1.0,9.999999747378752e-05
0.5173531189386267,0.9200000166893005,0.0005136574784046389,1.0,9.999999747378752e-05
0.5210784937284189,0.9200000166893005,0.0003498367728752783,1.0,9.999999747378752e-05
0.5325159694300965,0.9200000166893005,0.00030922089790692554,1.0,9.999999747378752e-05
0.532768282428151,0.9200000166893005,0.00015563145934720523,1.0,9.999999747378752e-05
0.5302209883317118,0.9200000166893005,0.00010824740511452546,1.0,9.999999747378752e-05
0.5331667082675267,0.9200000166893005,0.000397852313653857,1.0,9.999999747378752e-05
0.5392983688507229,0.9200000166893005,0.00012397440550557804,1.0,9.999999747378752e-05
0.5402370965195586,0.9200000166893005,0.00015644448994862615,1.0,9.999999747378752e-05
0.543276251113275,0.9200000166893005,0.00027391651237849144,1.0,9.999999747378752e-05
0.5594144452916225,0.9200000166893005,0.0007679118349187775,1.0,9.999999747378752e-05
0.5701709499349817,0.9200000166893005,0.0008880725636117859,1.0,9.999999747378752e-05
0.5509688258811366,0.9200000166893005,8.211870372178964e-05,1.0,9.999999747378752e-05
0.549401580292033,0.9200000166893005,0.0010066079587886633,1.0,9.999999747378752e-05
0.5751778007106623,0.9200000166893005,0.00029357373823586387,1.0,9.999999747378752e-05
0.5798083138273796,0.9200000166893005,0.0002976282175950473,1.0,9.999999747378752e-05
0.5755649949831423,0.9200000166893005,0.00014830388645350467,1.0,9.999999747378752e-05
0.5719191772805061,0.9200000166893005,0.00046428966961684635,1.0,9.999999747378752e-05
0.5650885920884321,0.9200000166893005,0.0006474848389188992,1.0,9.999999747378752e-05
0.5590390171681066,0.9200000166893005,0.0004515877255471423,1.0,9.999999747378752e-05
0.5577142746420577,0.9200000166893005,0.00021941756858723238,1.0,9.999999747378752e-05
0.559416086046258,0.9200000166893005,0.00030888762084941846,1.0,9.999999747378752e-05
0.5709802479657811,0.9200000166893005,0.0003717579082149314,1.0,9.999999747378752e-05
0.5687371977983275,0.9200000166893005,0.00016846793514559976,1.0,9.999999747378752e-05
0.564593517841422,0.9200000166893005,0.00013652546076627913,1.0,9.999999747378752e-05
0.5569519395095994,0.9200000166893005,0.00012227535553392953,1.0,9.999999747378752e-05
0.5550508441345301,0.9200000166893005,0.0001580186169121589,1.0,9.999999747378752e-05
0.5567960747197503,0.9200000166893005,0.00015657320091122529,1.0,9.999999747378752e-05
0.5553736928093713,0.9200000166893005,0.00012184577954030829,1.0,9.999999747378752e-05
0.554936886523501,0.9200000166893005,0.00024045796253631125,1.0,9.999999747378752e-05
0.5700863472331548,0.9200000166893005,0.0008729926765226991,1.0,9.999999747378752e-05
0.5979793746140786,0.9200000166893005,0.00037328883136069637,1.0,9.999999747378752e-05
0.5964174412772991,0.9200000166893005,0.0003552404240508622,1.0,9.999999747378752e-05
0.5883318094420247,0.9200000166893005,0.0001328056505371933,1.0,9.999999747378752e-05
0.5802299739967566,0.9200000166893005,0.00024590638658992245,1.0,9.999999747378752e-05
0.5712212251964957,0.9200000166893005,0.00040450965434501995,1.0,9.999999747378752e-05
0.5672410341037903,0.9200000166893005,0.0001161748958111275,1.0,9.999999747378752e-05
0.5635751153109595,0.9200000166893005,0.00015321806276915594,1.0,9.999999747378752e-05
0.5604884310014313,0.9200000166893005,0.0004705330747128755,1.0,9.999999747378752e-05
0.5537202152656391,0.9200000166893005,0.00017426761842216366,1.0,9.999999747378752e-05
0.5405450242309598,0.9200000166893005,0.00045516641621361486,1.0,9.999999747378752e-05
0.5381559769070009,0.9200000166893005,6.413762457668781e-05,1.0,9.999999747378752e-05
0.5272714949707733,0.9200000166893005,0.00044194729962327984,1.0,9.999999747378752e-05
0.5246205412026029,0.9200000166893005,0.00011317445432723616,1.0,9.999999747378752e-05
0.5275950247596484,0.9200000166893005,0.00013253705601528053,1.0,9.999999747378752e-05
0.5915841376292519,0.9200000166893005,0.0004670647726015886,1.0,9.999999747378752e-05
0.6183967511169612,0.9200000166893005,0.0003736536091309972,1.0,9.999999747378752e-05
0.6195920879545156,0.9200000166893005,0.00031439320555364246,1.0,9.999999747378752e-05
0.6045076075592078,0.9200000166893005,0.0006101552044128766,1.0,9.999999747378752e-05
0.6184832001104951,0.9200000166893005,0.000794139590652776,1.0,9.999999747378752e-05
0.6411537954700179,0.9200000166893005,0.00012062539458383981,1.0,9.999999747378752e-05
0.634051518276101,0.9200000166893005,0.00020176247599010822,1.0,9.999999747378752e-05
0.6212692115339451,0.9200000166893005,0.00016136195881699678,1.0,9.999999747378752e-05
0.6034092418034561,0.9200000166893005,0.0004507846276737837,1.0,9.999999747378752e-05
0.5915776308451314,0.9200000166893005,0.00019707102092070272,1.0,9.999999747378752e-05
0.5841889250703389,0.9200000166893005,8.256805795099353e-05,1.0,9.999999747378752e-05
0.5818541394604836,0.9200000166893005,0.0001311752703259117,1.0,9.999999747378752e-05
0.5796088589762803,0.9200000166893005,5.7344943343196064e-05,1.0,9.999999747378752e-05
0.5775308959098766,0.9200000166893005,0.00010981977520714281,1.0,9.999999747378752e-05
0.5796169790817658,0.9200000166893005,0.0002584520179880201,1.0,9.999999747378752e-05
0.5756325385766103,0.9200000166893005,0.0004444136291567702,1.0,9.999999747378752e-05
0.5623382731195307,0.9200000166893005,0.0001255185073659959,1.0,9.999999747378752e-05
0.561573840471101,0.9200000166893005,0.00047605240897610204,1.0,9.999999747378752e-05
0.561927850326174,0.9200000166893005,0.00025327745879621943,1.0,9.999999747378752e-05
0.5561382485582727,0.9200000166893005,0.0002673727802175563,1.0,9.999999747378752e-05
0.546773968503112,0.9200000166893005,0.0001363721234156401,1.0,9.999999747378752e-05
0.5449623699532822,0.9200000166893005,0.00010464971928740852,1.0,9.999999747378752e-05
0.5448781048180535,0.9200000166893005,9.404020129295531e-05,1.0,9.999999747378752e-05
0.5466646730754292,0.9200000166893005,6.68435954139568e-05,1.0,9.999999747378752e-05
0.5483106704603415,0.9200000166893005,8.987184810393956e-05,1.0,9.999999747378752e-05
0.5468511460407172,0.9200000166893005,0.0003185248551744735,1.0,9.999999747378752e-05
0.543587895084056,0.9200000166893005,0.0004207582302115043,1.0,9.999999747378752e-05
0.5531740979437018,0.9200000166893005,0.00020689295761258108,1.0,9.999999747378752e-05
0.5578102451516316,0.9200000166893005,7.568678138341056e-05,1.0,9.999999747378752e-05
0.5860208426020108,0.9200000166893005,0.0005115487816510722,1.0,9.999999747378752e-05
0.5976152011367958,0.9200000166893005,5.046898841101211e-05,1.0,9.999999747378752e-05
0.5980634510808158,0.9200000166893005,0.00015438625159731602,1.0,9.999999747378752e-05
0.5965062311239308,0.9200000166893005,0.00018695113067224156,1.0,9.999999747378752e-05
0.5932324375200551,0.9200000166893005,4.998817785235587e-05,1.0,9.999999747378752e-05
0.5945664289349224,0.9200000166893005,0.0002453437490657961,1.0,9.999999747378752e-05
0.5935792626696639,0.9200000166893005,0.0001695617629593471,1.0,9.999999747378752e-05
0.5918742138834204,0.9200000166893005,0.0001552034191263374,1.0,9.999999747378752e-05
0.5877757808804744,0.9200000166893005,0.00011065708376918337,1.0,9.999999747378752e-05
0.5804078504443169,0.9200000166893005,0.00010061463690362871,1.0,9.999999747378752e-05
0.5734581100201467,0.9200000166893005,0.000608235206163954,1.0,9.999999747378752e-05
0.5724886902928119,0.9200000166893005,0.00037905304143350806,1.0,9.999999747378752e-05
0.5820983840269036,0.9200000166893005,0.00045141465234337373,1.0,9.999999747378752e-05
0.5974604996910784,0.9200000166893005,9.437434136998491e-05,1.0,9.999999747378752e-05
0.6024074869812466,0.9200000166893005,0.0002157540968255489,1.0,9.999999747378752e-05
0.6005034975823946,0.9200000166893005,0.00010084543246193788,1.0,9.999999747378752e-05
0.6011031952744815,0.9200000166893005,0.0001044166015162773,1.0,9.999999747378752e-05
0.6051306010776898,0.9200000166893005,0.00039663905827183046,1.0,9.999999747378752e-05
0.606010982915177,0.9200000166893005,4.17870453929936e-05,1.0,9.999999747378752e-05
0.6052154341770801,0.9200000166893005,9.724425617605448e-05,1.0,9.999999747378752e-05
0.6162635016691638,0.9200000166893005,0.00024710797752049987,1.0,9.999999747378752e-05
0.6168985652620904,0.9200000166893005,8.578954784752569e-05,1.0,9.999999747378752e-05
0.6124373944592663,0.9200000166893005,0.0001724027926684357,1.0,9.999999747378752e-05
0.6072141831886256,0.9200000166893005,0.0003978612145147054,1.0,9.999999747378752e-05
0.5820965199091006,0.9200000166893005,8.321636414621025e-05,1.0,9.999999747378752e-05
0.570538257129374,0.9200000166893005,6.1012955666228666e-05,1.0,9.999999747378752e-05
0.5662996786442818,0.9200000166893005,5.5337070443783885e-05,1.0,9.999999747378752e-05
0.5689263187989126,0.9200000166893005,0.00021093766481499187,1.0,9.999999747378752e-05
0.571702866567648,0.9200000166893005,5.42908011993859e-05,1.0,9.999999747378752e-05
0.5749068093398819,0.9200000166893005,0.00010706195826060139,1.0,9.999999747378752e-05
0.5783987072005402,0.9200000166893005,0.00012338197811914142,1.0,9.999999747378752e-05
0.5986136586725479,0.9200000166893005,0.00033669578770059163,1.0,9.999999747378752e-05
0.6145798597601242,0.9200000166893005,0.00012770127395924646,1.0,9.999999747378752e-05
0.620783607289195,0.9200000166893005,0.00013555398782045814,1.0,9.999999747378752e-05
0.6161644004343543,0.9200000166893005,0.0001725427888231934,1.0,9.999999747378752e-05
0.6118793436384294,0.9200000166893005,0.0001911791727252421,1.0,9.999999747378752e-05
0.6077118070883444,0.9200000166893005,7.521251354773995e-05,1.0,9.999999747378752e-05
0.5999218248849502,0.9200000166893005,0.00012291717966945727,1.0,9.999999747378752e-05
0.6411376600968651,0.9200000166893005,0.0007980789618159178,1.0,9.999999747378752e-05
0.6484581223747228,0.9200000166893005,0.00030556364754374954,1.0,9.999999747378752e-05
0.6280784336820944,0.9200000166893005,0.0010845406301086768,1.0,9.999999747378752e-05
0.6038003450317774,0.9200000166893005,0.0001838072686950909,1.0,9.999999747378752e-05
0.5951384299114579,0.9200000166893005,0.00012431561135599621,1.0,9.999999747378752e-05
0.5884566446125973,0.9200000166893005,0.00022854461803945014,1.0,9.999999747378752e-05
0.5820221398695139,0.9200000166893005,0.00011390098170522833,1.0,9.999999747378752e-05
0.5753340162278618,0.9200000166893005,9.58931224886328e-05,1.0,9.999999747378752e-05
0.6004533355619059,0.9200000166893005,0.0015348829943832242,1.0,9.999999747378752e-05
0.6379725963575765,0.9200000166893005,0.0005846946110978024,1.0,9.999999747378752e-05
0.6387812556582503,0.9200000166893005,0.00017794328596210107,1.0,9.999999747378752e-05
0.6245739615522325,0.9200000166893005,0.00029379825546129725,1.0,9.999999747378752e-05
0.610822992870817,0.9200000166893005,0.0003617607575506554,1.0,9.999999747378752e-05
0.5984496255987324,0.9200000166893005,0.00027385139037505724,1.0,9.999999747378752e-05
0.5893420277163386,0.9200000166893005,0.0001317511322667997,1.0,9.999999747378752e-05
0.5803644131345209,0.9200000166893005,8.441319841949735e-05,1.0,9.999999747378752e-05
0.5745141930354294,0.9200000166893005,0.0001281793547605048,1.0,9.999999747378752e-05
0.5721368493919726,0.9200000166893005,0.0001831180483350181,1.0,9.999999747378752e-05
0.5638749776466284,0.9200000166893005,0.00015284766832337481,1.0,9.999999747378752e-05
0.5530486750329147,0.9200000166893005,0.0001456350237276638,1.0,9.999999747378752e-05
0.54578054730664,0.9200000166893005,0.00011564483211259357,1.0,9.999999747378752e-05
0.5386446648859419,0.9200000166893005,0.00013665404621860945,1.0,9.999999747378752e-05
0.5363236225442961,0.9200000166893005,6.238111109269084e-05,1.0,9.999999747378752e-05
0.5330331907491199,0.9200000166893005,7.389106722257565e-05,1.0,9.999999747378752e-05
0.5298362867994001,0.9200000166893005,0.00010471382147443364,1.0,9.999999747378752e-05
0.5331160235858988,0.9200000166893005,0.0002592035729321651,1.0,9.999999747378752e-05
0.5393667177064344,0.9200000166893005,6.619320838581188e-05,1.0,9.999999747378752e-05
0.5421908100717701,0.9200000166893005,0.0003530993019012385,1.0,9.999999747378752e-05
0.5450117327127373,0.9200000166893005,0.00012647737403312931,1.0,9.999999747378752e-05
0.5410188464273233,0.9200000166893005,0.00012129117039876292,1.0,9.999999747378752e-05
0.5376562743796967,0.9200000166893005,9.555983870086493e-05,1.0,9.999999747378752e-05
0.5377877622086089,0.9200000166893005,0.00025573465100023893,1.0,9.999999747378752e-05
0.5482684551825514,0.9200000166893005,0.00010251398052787408,1.0,9.999999747378752e-05
0.6063244784454582,0.9200000166893005,0.001755319960648194,1.0,9.999999747378752e-05
0.6125026376306778,0.9200000166893005,0.00031693074852228164,1.0,9.999999747378752e-05
0.612503503280459,0.9200000166893005,0.00024903869179979663,1.0,9.999999747378752e-05
0.6347592229605652,0.9200000166893005,0.0006728229298460064,1.0,9.999999747378752e-05
0.6340753805532586,0.9200000166893005,0.00011299658108328003,1.0,9.999999747378752e-05
0.6312564868305344,0.9200000166893005,0.00032648610103933604,1.0,9.999999747378752e-05
0.6183248985791578,0.9200000166893005,0.00012453210656531154,1.0,9.999999747378752e-05
0.594425773830153,0.9200000166893005,0.0003316451144200983,1.0,9.999999747378752e-05
0.5714528987329686,0.9200000166893005,0.0005475532909258618,1.0,9.999999747378752e-05
0.5726232487621019,0.9200000166893005,0.0001064385985955596,1.0,9.999999747378752e-05
0.5664407050469891,0.9200000166893005,6.707191023451742e-05,1.0,9.999999747378752e-05
0.5550739571946905,0.9200000166893005,0.00010836182791535975,1.0,9.999999747378752e-05
0.5445233332080534,0.9200000166893005,0.00013368333884500316,1.0,9.999999747378752e-05
0.5417204982164548,0.9200000166893005,5.684226989615127e-05,1.0,9.999999747378752e-05
0.538591154004098,0.9200000166893005,0.00010369741848990089,1.0,9.999999747378752e-05
0.5435226104396861,0.9200000166893005,0.00017396524744981435,1.0,9.999999747378752e-05
0.550261918787146,0.9200000166893005,0.0001275294327570009,1.0,9.999999747378752e-05
0.5624646550189937,0.9200000166893005,0.00024667904090165395,1.0,9.999999747378752e-05
0.5687433934479487,0.9200000166893005,2.9090530006214976e-05,1.0,9.999999747378752e-05
0.5801021695544477,0.9200000166893005,0.0005405397907452425,1.0,9.999999747378752e-05
0.6149260982201668,0.9200000166893005,0.00012162116609033546,1.0,9.999999747378752e-05
0.6191281468345551,0.9200000166893005,0.00032444684184156357,1.0,9.999999747378752e-05
0.6113333705667173,0.9200000166893005,0.00012622343692783033,1.0,9.999999747378752e-05
0.6338567647791933,0.9200000166893005,0.0006243973686650861,1.0,9.999999747378752e-05
0.6453678644786123,0.9200000166893005,0.00012141853339926456,1.0,9.999999747378752e-05
0.6228592276980635,0.9200000166893005,0.00011408435093471781,1.0,9.999999747378752e-05
0.6046903368609492,0.9200000166893005,0.00010442085294926073,1.0,9.999999747378752e-05
0.5989385992230382,0.9200000166893005,0.00010300045232725097,1.0,9.999999747378752e-05
0.5964731076528551,0.9200000166893005,7.754813691462914e-05,1.0,9.999999747378752e-05
0.5933337417431176,0.9200000166893005,4.015865297333221e-05,1.0,9.999999747378752e-05
0.5890909282315988,0.9200000166893005,9.816187921387609e-05,1.0,9.999999747378752e-05
0.5690186956635443,0.9200000166893005,0.0003344042828757665,1.0,9.999999747378752e-05
0.5636146408127388,0.9200000166893005,0.0001245515556547616,1.0,9.999999747378752e-05
0.5623449192149564,0.9200000166893005,0.00010649899677446228,1.0,9.999999747378752e-05
0.5643074335472192,0.9200000166893005,9.436876207473688e-05,1.0,9.999999747378752e-05
0.5729110884043621,0.9200000166893005,0.0002371065593251842,1.0,9.999999747378752e-05
0.5881324690242764,0.9200000166893005,0.00028891383171867344,1.0,9.999999747378752e-05
0.6112422237696592,0.9200000166893005,0.0004115480905966251,1.0,9.999999747378752e-05
0.6332528920291225,0.9200000166893005,0.00028940120855622806,1.0,9.999999747378752e-05
0.6356617231678683,0.9200000166893005,6.623348708671984e-05,1.0,9.999999747378752e-05
0.6282613848248729,0.9200000166893005,9.956131070794072e-05,1.0,9.999999747378752e-05
0.6210757827182534,0.9200000166893005,5.841953743583872e-05,1.0,9.999999747378752e-05
0.6114461267134175,0.9200000166893005,9.856587330432376e-05,1.0,9.999999747378752e-05
0.6042271438112948,0.9200000166893005,6.855527199149947e-05,1.0,9.999999747378752e-05
0.5966235431784298,0.9200000166893005,0.000300014409913274,1.0,9.999999747378752e-05
0.5933917602233123,0.9200000166893005,6.860539679109934e-05,1.0,9.999999747378752e-05
0.5915534987580031,0.9200000166893005,0.00016680782446201192,1.0,9.999999747378752e-05
0.5918893667520024,0.9200000166893005,7.281453126779524e-05,1.0,9.999999747378752e-05
0.530626312091772,0.9200000166893005,0.002173928090451227,1.0,9.999999747378752e-05
0.5176617134580738,0.9200000166893005,0.0004583596979500726,1.0,9.999999747378752e-05
0.5485634522672627,0.9200000166893005,0.00029889542565797456,1.0,9.999999747378752e-05
0.5958641762525076,0.9200000166893005,0.00022751815522497053,1.0,9.999999747378752e-05
0.6009182590933051,0.9200000166893005,0.000615546455810545,1.0,9.999999747378752e-05
0.5737085982778808,0.9200000166893005,6.733339787388105e-05,1.0,9.999999747378752e-05
0.5484879752097186,0.9200000166893005,0.00035321813102200393,1.0,9.999999747378752e-05
0.5500864421439473,0.9200000166893005,0.0001475004763051402,1.0,9.999999747378752e-05
0.5405722707786481,0.9200000166893005,0.00027939696810790337,1.0,9.999999747378752e-05
0.6176411827502306,0.9200000166893005,0.0005902058444917202,1.0,9.999999747378752e-05
0.6345307108887936,0.9200000166893005,6.69263768941164e-05,1.0,9.999999747378752e-05
0.6291192061355104,0.9200000166893005,7.176807803261908e-05,1.0,9.999999747378752e-05
0.6178424254845595,0.9200000166893005,0.0001055117005307693,1.0,9.999999747378752e-05
0.5819353689294076,0.9200000166893005,0.00017916932574735256,1.0,9.999999747378752e-05
0.5577391563449055,0.9200000166893005,9.56421866249002e-05,1.0,9.999999747378752e-05
0.5626143539135228,0.9200000166893005,0.0003563407777619432,1.0,9.999999747378752e-05
0.5854914558323798,0.9200000166893005,0.0002067937755782623,1.0,9.999999747378752e-05
0.6002244656381663,0.9200000166893005,0.00024527778041374406,1.0,9.999999747378752e-05
0.638527223325218,0.9200000166893005,0.0005310708431352396,1.0,9.999999747378752e-05
0.7029371878539677,0.9200000166893005,7.397624003715463e-05,1.0,9.999999747378752e-05
0.7115763454756234,0.9200000166893005,8.395943659706972e-05,1.0,9.999999747378752e-05
0.6959127864916809,0.9200000166893005,5.578351110671065e-05,1.0,9.999999747378752e-05
0.6464996706985403,0.9200000166893005,0.00029459109719027766,1.0,9.999999747378752e-05
0.6172038330405485,0.9200000166893005,5.2651941996373355e-05,1.0,9.999999747378752e-05
0.6054417135805125,0.9200000166893005,0.0002149943659787823,1.0,9.999999747378752e-05
0.5990438775217626,0.9200000166893005,0.00023164515941971332,1.0,9.999999747378752e-05
0.6053712317952886,0.9200000166893005,0.00021747737564510318,1.0,9.999999747378752e-05
0.6093182082113344,0.9200000166893005,6.406453421732294e-05,1.0,9.999999747378752e-05
0.6084063601738308,0.9200000166893005,5.500680354089127e-05,1.0,9.999999747378752e-05
0.6147059351002099,0.9200000166893005,0.00018840180628103552,1.0,9.999999747378752e-05
0.6036160947580356,0.9200000166893005,9.536960428704332e-05,1.0,9.999999747378752e-05
0.5977543953340501,0.9200000166893005,3.9931461833475625e-05,1.0,9.999999747378752e-05
0.5988677831017413,0.9200000166893005,3.768343012779951e-05,1.0,9.999999747378752e-05
0.5999181438644883,0.9200000166893005,0.00015689271403971362,1.0,9.999999747378752e-05
0.597605210126494,0.9200000166893005,0.0001150149339082418,1.0,9.999999747378752e-05
0.5942947634321172,0.9200000166893005,4.5819979641237295e-05,1.0,9.999999747378752e-05
0.5962210421421332,0.9200000166893005,7.386215502265258e-05,1.0,9.999999747378752e-05
0.575991671421798,0.9200000166893005,0.00032358903517888394,1.0,9.999999747378752e-05
0.567878067761194,0.9200000166893005,0.00023966841563378695,1.0,9.999999747378752e-05
0.5750137422757688,0.9200000166893005,6.210831243151916e-05,1.0,9.999999747378752e-05
0.5795399669441395,0.9200000166893005,0.00014742106086487183,1.0,9.999999747378752e-05
0.5797370293934364,0.9200000166893005,4.256863503542263e-05,1.0,9.999999747378752e-05
0.5835198151064105,0.9200000166893005,6.620275662498898e-05,1.0,9.999999747378752e-05
0.5894673417962621,0.9200000166893005,5.6100753135979174e-05,1.0,9.999999747378752e-05
0.5927033911633771,0.9200000166893005,4.1184800375049234e-05,1.0,9.999999747378752e-05
0.5962191142229131,0.9200000166893005,4.449839598237304e-05,1.0,9.999999747378752e-05
0.602679683957831,0.9200000166893005,7.77233452481596e-05,1.0,9.999999747378752e-05
0.6042415483912918,0.9200000166893005,5.30808225448709e-05,1.0,9.999999747378752e-05
0.6113766529160785,0.9200000166893005,0.00020423152309376747,1.0,9.999999747378752e-05
0.7476005058386364,0.9200000166893005,0.0006774135688829119,1.0,9.999999747378752e-05
0.8176697524351766,0.9200000166893005,0.00014005718294356483,1.0,9.999999747378752e-05
0.8093777104775655,0.9200000166893005,0.00011551393990885117,1.0,9.999999747378752e-05
0.7609359190944815,0.9200000166893005,0.00012576827011798742,1.0,9.999999747378752e-05
0.7223123125499115,0.9200000166893005,0.00010470748929947149,1.0,9.999999747378752e-05
0.6853668296767864,0.9200000166893005,8.177067738870391e-05,1.0,9.999999747378752e-05
0.6591259377717507,0.9200000166893005,0.00016170980052265804,1.0,9.999999747378752e-05
0.6312717793683987,0.9200000166893005,0.00014919885729796077,1.0,9.999999747378752e-05
0.6192979061306687,0.9200000166893005,6.010736778989667e-05,1.0,9.999999747378752e-05
0.6122345917305211,0.9200000166893005,3.775786353799049e-05,1.0,9.999999747378752e-05
0.6167597549123457,0.9200000166893005,0.00017697415878501488,1.0,9.999999747378752e-05
0.6016992750199279,0.9200000166893005,0.00015103041123438744,1.0,9.999999747378752e-05
0.5936206759797642,0.9200000166893005,4.1868240941767e-05,1.0,9.999999747378752e-05
0.5894968436448835,0.9200000166893005,5.4503067349287446e-05,1.0,9.999999747378752e-05
0.5896940346312476,0.9200000166893005,3.95580061194778e-05,1.0,9.999999747378752e-05
0.5926759672758635,0.9200000166893005,0.00012621835107893276,1.0,9.999999747378752e-05
0.6195624591040542,0.9200000166893005,0.0002719961205002619,1.0,9.999999747378752e-05
0.6456525656554731,0.9200000166893005,0.00042962286920555925,1.0,9.999999747378752e-05
0.6387720652783173,0.9200000166893005,0.00010973624594043941,1.0,9.999999747378752e-05
0.6174556991187273,0.9200000166893005,2.9991125938977347e-05,1.0,9.999999747378752e-05
0.6651235813245876,0.9200000166893005,0.00032796078075989497,1.0,9.999999747378752e-05
0.7105290202191099,0.9200000166893005,6.334795280054095e-05,1.0,9.999999747378752e-05
0.7102449105295818,0.9200000166893005,0.00012409555483827717,1.0,9.999999747378752e-05
0.6883446272928267,0.9200000166893005,0.00016025164868551655,1.0,9.999999747378752e-05
0.669574406335596,0.9200000166893005,4.3322480905771954e-05,1.0,9.999999747378752e-05
0.6571285507176071,0.9200000166893005,3.063370913878316e-05,1.0,9.999999747378752e-05
0.6421697343874258,0.9200000166893005,0.00011081139609814272,1.0,9.999999747378752e-05
0.6351370780932484,0.9200000166893005,5.217574853304541e-05,1.0,9.999999747378752e-05
0.6432989048305899,0.9200000166893005,0.00030871477470100216,1.0,9.999999747378752e-05
0.6834464232233586,0.9200000166893005,7.344661380557227e-05,1.0,9.999999747378752e-05
0.6776053002948175,0.9200000166893005,0.0001152558214016608,1.0,9.999999747378752e-05
0.6662622354560881,0.9200000166893005,4.782293926837155e-05,1.0,9.999999747378752e-05
0.6506017547901137,0.9200000166893005,0.00011966944457526551,1.0,9.999999747378752e-05
0.634567476369557,0.9200000166893005,6.115674486864008e-05,1.0,9.999999747378752e-05
0.6315213394744206,0.9200000166893005,0.00016563105914428887,1.0,9.999999747378752e-05
0.626852320060425,0.9200000166893005,2.465059365022171e-05,1.0,9.999999747378752e-05
0.6219937568996101,0.9200000166893005,3.443632506332506e-05,1.0,9.999999747378752e-05
0.6087972961788182,0.9200000166893005,5.9337513584978295e-05,1.0,9.999999747378752e-05
0.6018623895331985,0.9200000166893005,3.768397687053948e-05,1.0,9.999999747378752e-05
0.6142895712138852,0.9200000166893005,0.00011577180557651446,1.0,9.999999747378752e-05
0.6143368122953689,0.9200000166893005,6.590505163330817e-05,1.0,9.999999747378752e-05
0.6144387537467992,0.9200000166893005,2.8484180620580447e-05,1.0,9.999999747378752e-05
0.6215012435335666,0.9200000166893005,0.0002815131907027535,1.0,9.999999747378752e-05
0.6251737468468491,0.9200000166893005,9.180289598589297e-05,1.0,9.999999747378752e-05
0.6347083663393278,0.9200000166893005,6.815048645876231e-05,1.0,9.999999747378752e-05
0.6368172968795989,0.9200000166893005,0.00014870503337078845,1.0,9.999999747378752e-05
0.6346878454147372,0.9200000166893005,6.627023394685238e-05,1.0,9.999999747378752e-05
0.635782863359782,0.9200000166893005,6.547011334987474e-05,1.0,9.999999747378752e-05
0.6373541650886182,0.9200000166893005,2.8788372492272175e-05,1.0,9.999999747378752e-05
0.6418218596867519,0.9200000166893005,0.0002397550062596565,1.0,9.999999747378752e-05
0.6396908755181357,0.9200000166893005,2.8475907174652094e-05,1.0,9.999999747378752e-05
0.6377109905530233,0.9200000166893005,5.275989128676884e-05,1.0,9.999999747378752e-05
0.6388758856657659,0.9200000166893005,0.00013454259978971095,1.0,9.999999747378752e-05
1.525953682512045,0.800000011920929,0.007956181492681935,1.0,9.999999747378752e-05
0.4189029233995825,0.8999999761581421,0.005390015647571999,1.0,9.999999747378752e-05
0.43590455254525295,0.9200000166893005,0.027498625601583625,0.9900000095367432,9.999999747378752e-05
0.4565217104362091,0.8999999761581421,0.01820920870595728,0.9900000095367432,9.999999747378752e-05
1.521819191868417,0.7799999713897705,0.0015522687989687257,1.0,9.999999747378752e-05
2.6639819741249084,0.7599999904632568,0.004348560822927538,1.0,9.999999747378752e-05
2.003485877811909,0.7799999713897705,0.0035797849915979894,1.0,9.999999747378752e-05
0.9667638071230613,0.8999999761581421,0.003173547059122939,1.0,9.999999747378752e-05
0.8132588920445414,0.9200000166893005,0.0006603395078855101,1.0,9.999999747378752e-05
0.7416121214351733,0.9200000166893005,0.00040088065143208953,1.0,9.999999747378752e-05
0.7057441818527878,0.9200000166893005,0.00016112277826323406,1.0,9.999999747378752e-05
0.6835197975044138,0.9200000166893005,0.00022326473736029585,1.0,9.999999747378752e-05
0.6649297879950609,0.9200000166893005,0.0002734460613282863,1.0,9.999999747378752e-05
0.6556030522362561,0.9200000166893005,0.000848030914676201,1.0,9.999999747378752e-05
0.6434224396303762,0.9200000166893005,0.0005772774815341108,1.0,9.999999747378752e-05
0.6218890493677464,0.9200000166893005,0.0006535438926221105,1.0,9.999999747378752e-05
0.6138483763294061,0.9200000166893005,0.00024672364743310026,1.0,9.999999747378752e-05
0.6096811036899453,0.9200000166893005,0.00017179519672936295,1.0,9.999999747378752e-05
0.5889866209909087,0.9200000166893005,0.001284374948409095,1.0,9.999999747378752e-05
0.5686341701119091,0.9200000166893005,0.00018202535284217447,1.0,9.999999747378752e-05
0.5588637509441469,0.9200000166893005,0.00033832715271273626,1.0,9.999999747378752e-05
0.5580624258553144,0.9200000166893005,0.00033049899411707884,1.0,9.999999747378752e-05
0.5548696643993025,0.9200000166893005,0.0004954838417688734,1.0,9.999999747378752e-05
0.5132310892338865,0.9200000166893005,0.0028301966030994663,1.0,9.999999747378752e-05
0.4917935060802847,0.9200000166893005,0.00011404001324990531,1.0,9.999999747378752e-05
0.5082096982747316,0.8999999761581421,0.0009472362695305492,1.0,9.999999747378752e-05
0.5202556969132275,0.8999999761581421,0.0003319826726510655,1.0,9.999999747378752e-05
0.528529210202396,0.9200000166893005,0.000931590871186927,1.0,9.999999747378752e-05
0.5427568033046555,0.9200000166893005,0.00033067494005081246,1.0,9.999999747378752e-05
0.5563817415211816,0.9200000166893005,8.428335131611675e-05,1.0,9.999999747378752e-05
0.5678984387137461,0.9200000166893005,0.000289449627052818,1.0,9.999999747378752e-05
0.5722514423541725,0.9200000166893005,0.0008402871533689904,1.0,9.999999747378752e-05
0.5722038008185336,0.9200000166893005,0.0002101659461914096,1.0,9.999999747378752e-05
0.5110290419193916,0.9200000166893005,0.0037615144761730334,1.0,9.999999747378752e-05
0.48602862951811404,0.9200000166893005,0.0002927092131358222,1.0,9.999999747378752e-05
0.4855748589616269,0.9200000166893005,0.00022392441187548683,1.0,9.999999747378752e-05
0.4923358041211031,0.9200000166893005,0.00017008904651447665,1.0,9.999999747378752e-05
0.5019590669544414,0.9200000166893005,0.0001223511677380884,1.0,9.999999747378752e-05
0.5374535085895331,0.9200000166893005,0.0008255848792032338,1.0,9.999999747378752e-05
0.5534573321783682,0.9200000166893005,0.0001430224406249181,1.0,9.999999747378752e-05
0.5661578854618711,0.9200000166893005,0.00017884267690533308,1.0,9.999999747378752e-05
0.5724503486417234,0.9200000166893005,0.00016711650423530954,1.0,9.999999747378752e-05
0.5773116453419789,0.9200000166893005,0.000180800417001592,1.0,9.999999747378752e-05
0.5806966493139043,0.9200000166893005,7.821551644155988e-05,1.0,9.999999747378752e-05
0.5834230556341936,0.9200000166893005,0.0001323121654422721,1.0,9.999999747378752e-05
0.5835606381529942,0.9200000166893005,0.0003533992023221799,1.0,9.999999747378752e-05
0.5725734448060393,0.9200000166893005,0.003772567818305106,1.0,9.999999747378752e-05
0.5670858302808484,0.9200000166893005,0.00046266542994999327,1.0,9.999999747378752e-05
0.5566944627033081,0.9200000166893005,0.0014016463012012537,1.0,9.999999747378752e-05
0.5703485458594514,0.9200000166893005,0.0005647035370202503,1.0,9.999999747378752e-05
0.5591657658791519,0.9200000166893005,0.00024086405783236843,1.0,9.999999747378752e-05
0.5598841884246213,0.9200000166893005,0.00019717489667527843,1.0,9.999999747378752e-05
0.5655262004860561,0.9200000166893005,0.0001500904427302885,1.0,9.999999747378752e-05
0.5555178840193549,0.9200000166893005,0.0005502101863385178,1.0,9.999999747378752e-05
0.6034451030005584,0.9200000166893005,0.0011759713011997518,1.0,9.999999747378752e-05
0.6291899934381945,0.9200000166893005,0.00031632934660592583,1.0,9.999999747378752e-05
0.6336515997289098,0.9200000166893005,6.46430430606415e-05,1.0,9.999999747378752e-05
0.6351192590111168,0.9200000166893005,6.197191705723526e-05,1.0,9.999999747378752e-05
0.6353232102672337,0.9200000166893005,0.00014712368065374903,1.0,9.999999747378752e-05
0.6346592735819285,0.9200000166893005,8.790253814368043e-05,1.0,9.999999747378752e-05
0.6319987297145417,0.9200000166893005,0.0001770795060110686,1.0,9.999999747378752e-05
0.6251565438622493,0.9200000166893005,8.973291696747764e-05,1.0,9.999999747378752e-05
0.5969516747369198,0.9200000166893005,0.000719953410589369,1.0,9.999999747378752e-05
0.5864029135249439,0.9200000166893005,0.0005365166807678179,1.0,9.999999747378752e-05
0.5866103735374054,0.9200000166893005,0.0002881568356315256,1.0,9.999999747378752e-05
0.5895947819488356,0.9200000166893005,8.756581519264728e-05,1.0,9.999999747378752e-05
0.5932799728732789,0.9200000166893005,0.00013766754509560996,1.0,9.999999747378752e-05
0.5960815313519561,0.9200000166893005,0.00024867312022252007,1.0,9.999999747378752e-05
0.5996643242353457,0.9200000166893005,0.0001038784521369962,1.0,9.999999747378752e-05
0.6012414368145983,0.9200000166893005,0.00011719120702764485,1.0,9.999999747378752e-05
0.6058907987506246,0.9200000166893005,0.00021215705764916494,1.0,9.999999747378752e-05
0.6127007134957239,0.9200000166893005,0.00018541785339039053,1.0,9.999999747378752e-05
0.6207589028839721,0.9200000166893005,0.00035050200785917695,1.0,9.999999747378752e-05
0.6249442233543959,0.9200000166893005,0.00031193897921184545,1.0,9.999999747378752e-05
0.6315558206842979,0.9200000166893005,0.0004343135391536634,1.0,9.999999747378752e-05
0.6327556568125147,0.9200000166893005,0.00010955175903291093,1.0,9.999999747378752e-05
0.6332937512503122,0.9200000166893005,9.860807003860827e-05,1.0,9.999999747378752e-05
0.6305557259242051,0.9200000166893005,0.0001138757753324171,1.0,9.999999747378752e-05
0.6279071875222144,0.9200000166893005,7.410260031974758e-05,1.0,9.999999747378752e-05
0.626243000550312,0.9200000166893005,0.00018882813938034815,1.0,9.999999747378752e-05
0.6258434281757218,0.9200000166893005,0.0009085380188480485,1.0,9.999999747378752e-05
0.5533487395616248,0.8999999761581421,0.004989021294750273,1.0,9.999999747378752e-05
0.595958957541734,0.8999999761581421,0.0010193691283348016,1.0,9.999999747378752e-05
0.5665042667300441,0.8999999761581421,0.001217773076496087,1.0,9.999999747378752e-05
0.6469935083470773,0.9200000166893005,0.004973484034780995,1.0,9.999999747378752e-05
0.6811449814238586,0.9200000166893005,0.00017764110598363913,1.0,9.999999747378752e-05
0.6846038211835548,0.9200000166893005,0.00021714091817557347,1.0,9.999999747378752e-05
0.6651051682711113,0.9200000166893005,0.00035018733397009785,1.0,9.999999747378752e-05
0.6498086056380998,0.9200000166893005,0.00010110185139637906,1.0,9.999999747378752e-05
0.6376970824436284,0.9200000166893005,0.00010297134376742178,1.0,9.999999747378752e-05
0.6278165171272121,0.9200000166893005,0.00010007748351199552,1.0,9.999999747378752e-05
0.6180394295719452,0.9200000166893005,0.00028116427529312205,1.0,9.999999747378752e-05
0.6082346299488564,0.9200000166893005,0.00016073773585958406,1.0,9.999999747378752e-05
0.6009705579082947,0.9200000166893005,0.00014993543381933705,1.0,9.999999747378752e-05
0.5987578624335583,0.9200000166893005,0.000181186420013546,1.0,9.999999747378752e-05
0.5924608912493567,0.9200000166893005,0.0003077643499636906,1.0,9.999999747378752e-05
0.5866779397416394,0.9200000166893005,0.00019651395468827103,1.0,9.999999747378752e-05
0.5836729359463788,0.9200000166893005,0.00018777842942654387,1.0,9.999999747378752e-05
0.5913909024209716,0.9200000166893005,0.000853312275467033,1.0,9.999999747378752e-05
0.637611500947969,0.9200000166893005,0.00015599389062117552,1.0,9.999999747378752e-05
0.6439191934594419,0.9200000166893005,0.00015349512887041783,1.0,9.999999747378752e-05
0.639043156063417,0.9200000166893005,8.868624145179638e-05,1.0,9.999999747378752e-05
0.63170763598755,0.9200000166893005,3.214190285234508e-05,1.0,9.999999747378752e-05
0.6276969361701049,0.9200000166893005,0.0004306341446863371,1.0,9.999999747378752e-05
0.6194662566587794,0.9200000166893005,0.00013581505190813915,1.0,9.999999747378752e-05
0.6125472797546536,0.9200000166893005,0.00010019057835961576,1.0,9.999999747378752e-05
0.5999979328509653,0.9200000166893005,0.0012767200421876623,1.0,9.999999747378752e-05
0.5831068292114651,0.9200000166893005,0.00011868748933920869,1.0,9.999999747378752e-05
0.5766061874164734,0.9200000166893005,0.0001434641400919645,1.0,9.999999747378752e-05
0.5751439143263269,0.9200000166893005,0.00010087710379593772,1.0,9.999999747378752e-05
0.5743169825465884,0.9200000166893005,0.0001685494548837596,1.0,9.999999747378752e-05
0.5807896516111214,0.9200000166893005,0.0005555540963541716,1.0,9.999999747378752e-05
0.6286841294786427,0.9200000166893005,0.0002643099632223311,1.0,9.999999747378752e-05
0.6307657402707264,0.9200000166893005,0.0010995608394296142,1.0,9.999999747378752e-05
0.6017770979262422,0.9200000166893005,7.821014096407453e-05,1.0,9.999999747378752e-05
0.5861287015111885,0.9200000166893005,0.0005190066349314293,1.0,9.999999747378752e-05
0.578853226834326,0.9200000166893005,0.0006423592262763123,1.0,9.999999747378752e-05
0.5757975045766216,0.9200000166893005,9.883077341328317e-05,1.0,9.999999747378752e-05
0.5721326295868494,0.9200000166893005,0.00010178862721659243,1.0,9.999999747378752e-05
0.5704727191317943,0.9200000166893005,0.00021059154114482225,1.0,9.999999747378752e-05
0.5701160962853464,0.9200000166893005,5.500008537637768e-05,1.0,9.999999747378752e-05
0.573835343006067,0.9200000166893005,0.0004507365712925093,1.0,9.999999747378752e-05
0.573454973247135,0.9200000166893005,0.00012499572103479294,1.0,9.999999747378752e-05
0.572419570069178,0.9200000166893005,6.226217992661986e-05,1.0,9.999999747378752e-05
0.5799813144549262,0.9200000166893005,0.0007406373190860904,1.0,9.999999747378752e-05
0.6207270962477196,0.9200000166893005,7.394516078420565e-05,1.0,9.999999747378752e-05
0.6384310048248153,0.9200000166893005,0.0005150486547790933,1.0,9.999999747378752e-05
0.6634221479820553,0.9200000166893005,7.089465291301166e-05,1.0,9.999999747378752e-05
0.665829707228113,0.9200000166893005,6.389565605786629e-05,1.0,9.999999747378752e-05
0.6595911592943594,0.9200000166893005,4.807056293429923e-05,1.0,9.999999747378752e-05
0.6472877073509153,0.9200000166893005,0.0002881252534280065,1.0,9.999999747378752e-05
0.6431982245703693,0.9200000166893005,0.00032847137699718585,1.0,9.999999747378752e-05
0.6354706735088257,0.9200000166893005,8.185076876543462e-05,1.0,9.999999747378752e-05
0.6284441992582288,0.9200000166893005,0.00010394683877166245,1.0,9.999999747378752e-05
0.6168924784607952,0.9200000166893005,0.00018779112078846084,1.0,9.999999747378752e-05
0.6091069463465828,0.9200000166893005,7.335846921705525e-05,1.0,9.999999747378752e-05
0.603606038322323,0.9200000166893005,8.886680516297928e-05,1.0,9.999999747378752e-05
0.6030105082842055,0.9200000166893005,0.00012495961796048504,1.0,9.999999747378752e-05
0.60190123123175,0.9200000166893005,7.531354112870759e-05,1.0,9.999999747378752e-05
0.6004456216352991,0.9200000166893005,6.289810880844016e-05,1.0,9.999999747378752e-05
0.597302152228076,0.9200000166893005,3.725587830558652e-05,1.0,9.999999747378752e-05
0.5990866064094007,0.9200000166893005,0.000232999926811317,1.0,9.999999747378752e-05
0.5986953381245257,0.9200000166893005,0.00011879285743816581,1.0,9.999999747378752e-05
0.5938428676032345,0.9200000166893005,0.00016746070905355738,1.0,9.999999747378752e-05
0.5951840262656333,0.9200000166893005,0.00032840795365700614,1.0,9.999999747378752e-05
0.5963096203515306,0.9200000166893005,0.00010360960477555637,1.0,9.999999747378752e-05
0.5957933368947124,0.9200000166893005,2.899910232372349e-05,1.0,9.999999747378752e-05
0.5903004054634948,0.9200000166893005,0.00014887162869854366,1.0,9.999999747378752e-05
0.5871738564310363,0.9200000166893005,9.310989771620371e-05,1.0,9.999999747378752e-05
0.5842753713252022,0.9200000166893005,5.0388942599965955e-05,1.0,9.999999747378752e-05
0.5845724732964299,0.9200000166893005,7.748688785795821e-05,1.0,9.999999747378752e-05
0.5844552584108896,0.9200000166893005,0.00041388822319277097,1.0,9.999999747378752e-05
0.5852388843049994,0.9200000166893005,5.849964436492883e-05,1.0,9.999999747378752e-05
0.5823626504352433,0.9200000166893005,0.0001518467448931915,1.0,9.999999747378752e-05
0.577395150178927,0.9200000166893005,9.940221507349633e-05,1.0,9.999999747378752e-05
0.5764702886648593,0.9200000166893005,0.0001310415376792662,1.0,9.999999747378752e-05
0.57361449595046,0.9200000166893005,4.1695820891618494e-05,1.0,9.999999747378752e-05
0.5742897552510839,0.9200000166893005,3.119168759440072e-05,1.0,9.999999747378752e-05
0.5762715485921944,0.9200000166893005,0.00011367173774488038,1.0,9.999999747378752e-05
0.5777681232473697,0.9200000166893005,0.0001842168121584109,1.0,9.999999747378752e-05
0.5766039115143939,0.9200000166893005,0.00010559600723354378,1.0,9.999999747378752e-05
0.5789425641356502,0.9200000166893005,2.0914749620715155e-05,1.0,9.999999747378752e-05
0.5809438944314025,0.9200000166893005,0.00012341885612840998,1.0,9.999999747378752e-05
0.5846434726758162,0.9200000166893005,4.856933633163862e-05,1.0,9.999999747378752e-05
0.5873500692614471,0.9200000166893005,4.650063415283512e-05,1.0,9.999999747378752e-05
0.589502513941261,0.9200000166893005,8.435621111857472e-05,1.0,9.999999747378752e-05
0.5921269734419183,0.9200000166893005,9.063847082870779e-05,1.0,9.999999747378752e-05
0.5956846045621205,0.9200000166893005,0.00010466415828886965,1.0,9.999999747378752e-05
0.5968046971756849,0.9200000166893005,7.185968388512265e-05,1.0,9.999999747378752e-05
0.6056919648224721,0.9200000166893005,0.0004230480981277651,1.0,9.999999747378752e-05
0.6119924487225944,0.9200000166893005,4.392302730593656e-05,1.0,9.999999747378752e-05
0.6115444780065445,0.9200000166893005,0.00020426560604391852,1.0,9.999999747378752e-05
0.6088581068543135,0.9200000166893005,3.101798852185311e-05,1.0,9.999999747378752e-05
0.6072595113771968,0.9200000166893005,5.377347761168494e-05,1.0,9.999999747378752e-05
0.6045819720020518,0.9200000166893005,6.900616440361774e-05,1.0,9.999999747378752e-05
0.6032828274765052,0.9200000166893005,4.360929651738843e-05,1.0,9.999999747378752e-05
0.6052798003540374,0.9200000166893005,6.429544682760025e-05,1.0,9.999999747378752e-05
0.6186708277993602,0.9200000166893005,0.00033331805543639347,1.0,9.999999747378752e-05
0.6234481402061647,0.9200000166893005,0.00014355735020217254,1.0,9.999999747378752e-05
0.6273638841725188,0.9200000166893005,0.0003621023070991214,1.0,9.999999747378752e-05
0.6338397057494148,0.9200000166893005,5.5918439738888995e-05,1.0,9.999999747378752e-05
0.6362568182608811,0.9200000166893005,0.00042876188590526,1.0,9.999999747378752e-05
0.6394043855703785,0.9200000166893005,0.0001290382768274867,1.0,9.999999747378752e-05
0.6398457188246539,0.9200000166893005,0.0001906587413031957,1.0,9.999999747378752e-05
0.6395396701802383,0.9200000166893005,0.00012946568731422303,1.0,9.999999747378752e-05
0.637622244101658,0.9200000166893005,3.853841503769218e-05,1.0,9.999999747378752e-05
0.638490954056033,0.9200000166893005,0.000191662567340245,1.0,9.999999747378752e-05
0.6359859552467242,0.9200000166893005,5.353375090635382e-05,1.0,9.999999747378752e-05
0.6340720659063663,0.9200000166893005,5.3085159106558424e-05,1.0,9.999999747378752e-05
0.6344422970985761,0.9200000166893005,0.00018526885228311584,1.0,9.999999747378752e-05
0.6350303882674779,0.9200000166893005,5.395928719735821e-05,1.0,9.999999747378752e-05
0.6367686291196151,0.9200000166893005,0.00012065644677932142,1.0,9.999999747378752e-05
0.6429309266779455,0.9200000166893005,8.377826320611348e-05,1.0,9.999999747378752e-05
0.6443051763257245,0.9200000166893005,3.4387196365059935e-05,1.0,9.999999747378752e-05
0.6422489790289546,0.9200000166893005,9.59082010012935e-05,1.0,9.999999747378752e-05
0.6377934952164651,0.9200000166893005,7.682694813411217e-05,1.0,9.999999747378752e-05
0.6323740620966418,0.9200000166893005,0.00012924772945552832,1.0,9.999999747378752e-05
0.628690600124537,0.9200000166893005,4.978286592631776e-05,1.0,9.999999747378752e-05
0.6310725119474228,0.9200000166893005,0.00014695754039166785,1.0,9.999999747378752e-05
0.6367541228391929,0.9200000166893005,0.00010447728955114144,1.0,9.999999747378752e-05
0.6366300308436621,0.9200000166893005,3.7893927674304e-05,1.0,9.999999747378752e-05
0.6352115551635507,0.9200000166893005,3.826749430118071e-05,1.0,9.999999747378752e-05
0.632330357140745,0.9200000166893005,5.8347494905319765e-05,1.0,9.999999747378752e-05
0.6281547400838463,0.9200000166893005,4.1030528632290955e-05,1.0,9.999999747378752e-05
0.6240460383429308,0.9200000166893005,7.261055752678658e-05,1.0,9.999999747378752e-05
0.6260195219656453,0.9200000166893005,0.00019953425853600493,1.0,9.999999747378752e-05
0.8003512654497171,0.9200000166893005,0.0022975582043727625,1.0,9.999999747378752e-05
0.9203497561626136,0.8999999761581421,0.0007011227444309043,1.0,9.999999747378752e-05
0.8904767204425298,0.8999999761581421,0.0005154335836778046,1.0,9.999999747378752e-05
0.7969026522914646,0.9200000166893005,0.000677180750790285,1.0,9.999999747378752e-05
0.40821626149117946,0.9399999976158142,0.00818820997919829,1.0,9.999999747378752e-05
1.2254795551300048,0.7599999904632568,0.0022838923272502144,1.0,9.999999747378752e-05
0.5475801132619381,0.8999999761581421,0.0007483235785912257,1.0,9.999999747378752e-05
0.4542792617809027,0.8999999761581421,0.0007243340216518846,1.0,9.999999747378752e-05
0.47897948655299843,0.8999999761581421,0.00032146542471309656,1.0,9.999999747378752e-05
0.49629749935120343,0.8999999761581421,0.0002952833544441091,1.0,9.999999747378752e-05
0.5398267230448255,0.9200000166893005,0.0011248538132349495,1.0,9.999999747378752e-05
0.6038926435499888,0.9200000166893005,0.00011016436601494207,1.0,9.999999747378752e-05
0.6157523482692341,0.9200000166893005,9.758460846569506e-05,1.0,9.999999747378752e-05
0.7310313726615277,0.9200000166893005,0.008156310746926465,1.0,9.999999747378752e-05
0.893474226408216,0.8799999952316284,0.0004958293184245122,1.0,9.999999747378752e-05
0.8939012840855867,0.8799999952316284,0.002046450306352199,1.0,9.999999747378752e-05
0.8250455179710116,0.8799999952316284,0.00031655227139708585,1.0,9.999999747378752e-05
0.72008142710838,0.8999999761581421,0.002263727136596572,1.0,9.999999747378752e-05
0.7650954415439628,0.9200000166893005,0.00791061716117838,1.0,9.999999747378752e-05
0.7575701578040025,0.8999999761581421,0.0035260082717286424,1.0,9.999999747378752e-05
0.8252412245376035,0.8799999952316284,0.0008966417068222654,1.0,9.999999747378752e-05
0.8197576241800562,0.8799999952316284,0.0009385711456161516,1.0,9.999999747378752e-05
0.7019012113887584,0.8999999761581421,0.001436010676297883,1.0,9.999999747378752e-05
0.5658046383381589,0.8999999761581421,0.0016544850244827104,1.0,9.999999747378752e-05
0.5446335704386002,0.9200000166893005,0.00036391105204529594,1.0,9.999999747378752e-05
0.5414713284146273,0.9200000166893005,0.0007374984936177498,1.0,9.999999747378752e-05
0.5412292239692761,0.9200000166893005,0.0002208616156167409,1.0,9.999999747378752e-05
0.5298583589639747,0.9200000166893005,0.003552345309617522,1.0,9.999999747378752e-05
0.5705032071185997,0.8999999761581421,0.0004606187786521332,1.0,9.999999747378752e-05
0.5912218932295218,0.8999999761581421,0.00014893986790411872,1.0,9.999999747378752e-05
0.5891823530662805,0.8799999952316284,0.0015441087969520594,1.0,9.999999747378752e-05
0.6132866762578487,0.8799999952316284,0.0002088919558445923,1.0,9.999999747378752e-05
0.5989867437630891,0.8799999952316284,8.376016303373035e-05,1.0,9.999999747378752e-05
0.5521347093395889,0.8799999952316284,0.00023815645763534122,1.0,9.999999747378752e-05
0.5029523239471019,0.8799999952316284,0.0005587331761489622,1.0,9.999999747378752e-05
0.5232962201931514,0.9200000166893005,0.0010691346690691716,1.0,9.999999747378752e-05
0.5659560135973152,0.9200000166893005,0.0005198351145736524,1.0,9.999999747378752e-05
0.5888485556963132,0.9200000166893005,0.0001157886923465412,1.0,9.999999747378752e-05
0.5955103139713174,0.9200000166893005,0.0008905856080673402,1.0,9.999999747378752e-05
0.5984013044449966,0.9200000166893005,7.852043290768052e-05,1.0,9.999999747378752e-05
0.6024930385960033,0.9200000166893005,0.0002546668256400153,1.0,9.999999747378752e-05
0.6073709060670808,0.9200000166893005,0.00011979708942817524,1.0,9.999999747378752e-05
0.6121527417883044,0.9200000166893005,0.00014554904773831368,1.0,9.999999747378752e-05
0.6159955809416715,0.9200000166893005,8.184728922060458e-05,1.0,9.999999747378752e-05
0.6197793493454811,0.9200000166893005,0.00010107457692356547,1.0,9.999999747378752e-05
0.6228210206929361,0.9200000166893005,0.00018066108350467402,1.0,9.999999747378752e-05
0.6256628391274717,0.9200000166893005,0.00010853432650037576,1.0,9.999999747378752e-05
0.6301992701512062,0.9200000166893005,0.0007085877062309009,1.0,9.999999747378752e-05
0.6348948375700274,0.9200000166893005,0.00018924433115898864,1.0,9.999999747378752e-05
0.6346604934078641,0.9200000166893005,0.00011789811542257666,1.0,9.999999747378752e-05
0.6348922984412638,0.9200000166893005,0.0002382882343226811,1.0,9.999999747378752e-05
0.6389047212142032,0.9200000166893005,0.00018889152852352709,1.0,9.999999747378752e-05
0.6410541309393011,0.9200000166893005,0.00016189126918106922,1.0,9.999999747378752e-05
0.6453068831382552,0.9200000166893005,0.0005675300348229939,1.0,9.999999747378752e-05
0.6545307614142075,0.9200000166893005,9.906001832860056e-05,1.0,9.999999747378752e-05
0.6568051766022108,0.9200000166893005,5.7621746782388074e-05,1.0,9.999999747378752e-05
0.6582098948652856,0.9200000166893005,6.395636628440116e-05,1.0,9.999999747378752e-05
0.5796296658809297,0.9200000166893005,0.001797569324480719,1.0,9.999999747378752e-05
0.5533261087955907,0.9200000166893005,0.0001635955435631331,1.0,9.999999747378752e-05
0.5425254193134605,0.9200000166893005,0.0009974389878152578,1.0,9.999999747378752e-05
0.5505834686395247,0.9200000166893005,0.0004158527102845255,1.0,9.999999747378752e-05
0.5654271080391482,0.9200000166893005,5.61428836590494e-05,1.0,9.999999747378752e-05
0.5794965496374062,0.9200000166893005,0.00019432245226198576,1.0,9.999999747378752e-05
0.5934062143322081,0.9200000166893005,0.00014849292401777347,1.0,9.999999747378752e-05
0.6156092567078304,0.9200000166893005,0.000824406092215213,1.0,9.999999747378752e-05
0.6677448716131039,0.9200000166893005,0.0011860612943564775,1.0,9.999999747378752e-05
0.6886905556253623,0.9200000166893005,0.00011834864681077306,1.0,9.999999747378752e-05
0.6922459024761338,0.9200000166893005,4.311171196604846e-05,1.0,9.999999747378752e-05
0.6875199817412068,0.9200000166893005,8.01569435679994e-05,1.0,9.999999747378752e-05
0.6807926314591896,0.9200000166893005,8.335842885571765e-05,1.0,9.999999747378752e-05
0.6787084058858455,0.9200000166893005,0.00010588810546323657,1.0,9.999999747378752e-05
0.6735194085922558,0.9200000166893005,8.335405946127138e-05,1.0,9.999999747378752e-05
0.6697239239176269,0.9200000166893005,7.705151401751209e-05,1.0,9.999999747378752e-05
0.6635399222257548,0.9200000166893005,8.394209125981434e-05,1.0,9.999999747378752e-05
0.6527909259020817,0.9200000166893005,0.00020580676518875408,1.0,9.999999747378752e-05
0.6427189353911672,0.9200000166893005,2.7936544893236714e-05,1.0,9.999999747378752e-05
0.6386618228803854,0.9200000166893005,3.4022298586933174e-05,1.0,9.999999747378752e-05
0.635788847200456,0.9200000166893005,0.00010500975158720394,1.0,9.999999747378752e-05
0.6341736107948236,0.9200000166893005,6.714970850225654e-05,1.0,9.999999747378752e-05
0.6339850481512258,0.9200000166893005,0.00014018529545865022,1.0,9.999999747378752e-05
0.6363088239566423,0.9200000166893005,6.314434003797941e-05,1.0,9.999999747378752e-05
0.6336161685030675,0.9200000166893005,9.61208048465778e-05,1.0,9.999999747378752e-05
0.6332810007646913,0.9200000166893005,9.156705264103948e-05,1.0,9.999999747378752e-05
0.6315268805483356,0.9200000166893005,8.71395365720673e-05,1.0,9.999999747378752e-05
0.6408826250757557,0.9200000166893005,0.0006183584007885656,1.0,9.999999747378752e-05
0.6416840676305583,0.9200000166893005,9.419590546713152e-05,1.0,9.999999747378752e-05
0.6366316862928215,0.9200000166893005,0.00019250872828706632,1.0,9.999999747378752e-05
0.6350680267903954,0.9200000166893005,5.201714711802197e-05,1.0,9.999999747378752e-05
0.6349304489820498,0.9200000166893005,0.0001398957001583767,1.0,9.999999747378752e-05
0.6341018817533041,0.9200000166893005,4.804686905117706e-05,1.0,9.999999747378752e-05
0.6331540260172914,0.9200000166893005,5.968152136119898e-05,1.0,9.999999747378752e-05
0.6333826903137378,0.9200000166893005,4.420560835569631e-05,1.0,9.999999747378752e-05
0.637131146484171,0.9200000166893005,0.00024274265547319374,1.0,9.999999747378752e-05
0.6401682640862418,0.9200000166893005,3.3458281814091605e-05,1.0,9.999999747378752e-05
0.6371110740466974,0.9200000166893005,0.00014384036239789566,1.0,9.999999747378752e-05
0.6347061166306958,0.9200000166893005,6.370755909301806e-05,1.0,9.999999747378752e-05
0.6321341919654515,0.9200000166893005,7.867996337154181e-05,1.0,9.999999747378752e-05
0.6310107743163826,0.9200000166893005,7.439653672918212e-05,1.0,9.999999747378752e-05
0.6329896321491105,0.9200000166893005,0.00012449397077034518,1.0,9.999999747378752e-05
0.6312701014132471,0.9200000166893005,0.00012426550001691793,1.0,9.999999747378752e-05
0.6293421913171187,0.9200000166893005,0.00010859422773137339,1.0,9.999999747378752e-05
0.6282572819822235,0.9200000166893005,0.00010935644140772638,1.0,9.999999747378752e-05
0.632327328651445,0.9200000166893005,0.00014141161727820872,1.0,9.999999747378752e-05
0.6329680420865771,0.9200000166893005,9.11446687496209e-05,1.0,9.999999747378752e-05
0.6350971320469398,0.9200000166893005,0.00018595496535454004,1.0,9.999999747378752e-05
0.6366085241927066,0.9200000166893005,0.00011986626977886772,1.0,9.999999747378752e-05
0.6377737422852079,0.9200000166893005,7.57692256684095e-05,1.0,9.999999747378752e-05
0.6435875302209751,0.9200000166893005,0.0002915539515015553,1.0,9.999999747378752e-05
0.6464874469587812,0.9200000166893005,8.55154323289753e-05,1.0,9.999999747378752e-05
0.6458858395490097,0.9200000166893005,9.856820265667921e-05,1.0,9.999999747378752e-05
0.6431239530531456,0.9200000166893005,0.00010414778457743524,1.0,9.999999747378752e-05
0.6401334651221987,0.9200000166893005,7.660886531084543e-05,1.0,9.999999747378752e-05
0.6437363558390643,0.9200000166893005,0.00039569801037941943,1.0,9.999999747378752e-05
0.6431673213199247,0.9200000166893005,3.02213904888049e-05,1.0,9.999999747378752e-05
0.6440779224154539,0.9200000166893005,0.00011469650553408428,1.0,9.999999747378752e-05
